387,504
383,506
387,506
384,504
384,503
383,504
385,504
382,504
386,503
383,503
391,503
393,504
394,504
396,505
396,503
393,504
395,504
393,504
393,506
391,505
389,505
388,505
387,504
384,503
385,503
385,501
385,501
386,499
387,498
390,498
394,498
393,499
399,499
399,499
400,499
400,499
397,499
398,500
397,500
393,500
395,501
392,501
390,502
390,501
386,501
388,501
388,501
389,501
390,501
392,501
394,500
398,501
395,501
401,501
400,501
401,500
401,501
400,502
398,501
397,500
392,501
395,501
394,501
392,501
392,501
390,501
389,501
391,501
389,501
394,501
398,501
398,501
400,500
400,500
399,499
400,499
396,500
399,500
398,499
395,499
394,498
390,499
389,498
390,498
387,498
389,499
389,499
389,499
390,498
390,498
392,498
395,498
394,498
399,498
399,497
398,497
397,498
393,498
392,498
391,499
392,500
389,500
387,500
385,499
384,498
379,498
381,498
380,498
381,497
383,497
385,498
383,498
386,499
383,500
385,499
388,501
384,501
384,502
381,502
376,501
377,502
371,503
373,503
373,504
371,503
371,504
370,503
369,503
372,503
371,503
379,504
381,507
383,508
385,507
384,506
382,505
384,503
381,502
383,504
384,505
381,503
381,503
376,503
377,502
379,502
378,503
380,504
381,503
382,503
385,503
384,503
386,503
390,504
392,504
393,504
392,503
390,504
390,504
384,503
385,503
385,503
385,504
386,504
385,504
382,503
384,503
381,504
384,504
388,504
390,504
392,504
395,504
394,504
398,504
394,504
395,504
397,504
396,506
394,505
392,504
388,504
390,504
384,504
389,504
388,503
387,506
387,505
388,504
386,504
391,503
389,503
396,504
398,504
400,506
401,507
400,507
396,507
398,507
396,506
396,504
394,502
394,503
392,502
392,502
389,502
392,502
393,502
394,503
396,502
398,503
402,503
405,503
404,503
411,503
410,503
411,503
411,504
408,504
409,504
408,503
405,503
407,503
406,504
405,503
405,505
401,504
403,504
404,504
404,503
406,502
408,502
409,503
411,506
408,503
411,503
409,503
410,503
407,504
405,503
402,503
403,504
395,504
397,504
394,503
394,503
393,503
392,504
390,504
394,506
391,506
396,504
399,504
400,503
403,503
403,503
402,504
406,505
400,504
403,503
404,503
403,503
402,504
398,504
396,505
396,504
390,504
392,504
390,505
388,505
388,504
386,505
386,506
387,505
385,505
388,505
388,505
387,506
387,506
384,506
385,507
386,506
386,506
386,507
385,506
382,506
381,506
376,506
378,508
377,507
378,506
380,507
381,508
382,508
385,507
383,507
387,508
391,508
391,508
393,508
395,508
393,508
397,508
392,510
395,512
393,509
391,509
389,509
387,509
381,509
382,509
377,511
380,510
380,510
381,509
381,509
381,509
377,510
380,510
376,511
379,510
379,510
378,510
377,511
376,511
370,510
370,511
364,512
367,512
366,511
365,511
366,511
368,511
366,512
371,512
374,513
375,512
377,512
379,512
380,512
382,512
381,512
383,513
383,513
382,512
381,512
377,513
377,513
374,513
371,513
373,514
373,513
373,514
375,514
373,514
376,514
376,514
376,514
379,517
379,516
377,515
378,515
374,515
376,515
373,515
374,515
373,517
370,518
369,518
369,517
367,517
373,516
374,517
380,517
385,518
386,516
390,516
393,516
391,517
394,517
392,517
395,517
395,520
391,519
387,520
385,520
378,520
379,521
377,522
372,523
371,522
371,522
372,522
374,523
372,522
376,522
380,522
381,526
383,527
381,527
382,527
384,525
383,523
386,521
383,521
383,521
382,520
379,520
379,520
377,520
375,520
380,520
382,520
386,523
385,521
381,519
387,519
389,519
389,519
385,518
383,518
383,519
385,519
380,519
376,518
368,517
367,517
365,517
358,519
347,517
340,517
336,516
340,517
336,516
328,516
316,515
316,517
314,516
303,515
280,515
270,514
270,513
274,513
266,513
230,515
191,513
183,511
172,512
138,512
83,511
52,511
36,511
45,512
47,511
7,511
0,510
0,510
0,510
0,510
0,509
0,508
0,508
0,508
79,508
106,508
119,507
169,507
227,508
241,511
224,508
207,506
244,506
304,506
317,507
277,507
241,508
257,508
308,507
311,507
274,506
246,506
266,506
309,507
302,508
242,507
185,506
151,506
143,507
99,507
85,507
49,507
0,507
0,507
0,507
0,507
0,506
0,506
0,507
0,506
0,509
0,506
0,505
0,505
0,505
0,504
0,504
0,504
0,505
0,504
0,503
0,503
0,503
0,503
81,503
190,503
285,502
385,501
499,501
567,503
631,502
720,501
789,500
795,500
789,499
792,497
795,495
795,493
794,492
796,492
791,491
796,490
795,490
797,490
796,491
796,490
796,490
796,490
791,491
796,491
796,491
796,490
797,490
796,491
794,490
796,490
788,489
795,489
796,489
795,489
793,489
794,489
791,488
794,488
752,488
676,488
644,488
639,488
635,488
613,489
570,488
520,488
463,489
412,490
336,490
233,490
205,490
158,491
81,491
1,492
0,492
0,493
0,494
0,495
0,496
0,496
0,496
0,496
0,498
0,499
0,498
0,498
0,499
0,501
0,502
0,501
0,501
0,502
0,503
0,504
0,505
0,505
0,505
0,507
0,508
0,508
0,508
0,508
0,509
0,510
0,509
0,509
0,510
0,511
0,511
0,512
122,511
184,511
223,512
240,512
247,513
252,513
263,513
273,514
291,515
306,515
320,514
332,516
341,516
349,517
355,517
357,518
367,519
374,520
379,520
385,520
390,520
392,521
399,522
399,522
404,519
408,519
410,521
414,525
414,524
413,524
417,525
414,525
418,527
418,528
417,530
419,532
416,532
415,531
417,531
414,531
419,531
419,531
420,534
421,534
420,534
421,534
425,534
424,535
427,536
427,536
425,537
423,536
418,537
416,538
414,538
412,537
409,537
407,539
405,540
402,540
398,540
399,540
398,540
400,541
400,541
401,541
398,542
400,542
394,542
393,542
391,542
384,543
377,543
370,545
359,545
354,544
345,544
343,545
341,545
338,545
337,545
336,547
335,548
339,547
338,546
347,546
351,546
355,546
359,546
364,549
364,549
370,549
369,549
378,549
380,547
382,544
386,544
391,545
389,545
395,544
397,543
399,543
401,544
402,544
404,544
406,543
405,543
409,543
411,543
412,542
414,542
412,541
413,542
413,542
410,541
415,539
414,539
415,539
416,539
414,538
415,539
415,537
412,535
415,535
414,535
415,533
416,532
413,532
417,533
415,531
415,529
414,529
413,528
412,528
412,527
409,526
414,528
414,526
414,524
417,523
419,521
421,520
424,520
423,519
431,521
432,519
435,516
437,515
437,514
434,513
433,512
423,512
421,511
412,510
401,509
391,508
381,506
369,506
362,506
351,506
347,503
343,502
341,501
341,501
340,500
343,499
350,497
352,498
361,497
366,496
371,494
375,493
375,493
378,492
381,491
379,491
382,489
382,488
380,488
377,486
371,486
368,485
364,484
360,485
353,484
347,483
341,482
337,482
329,481
328,481
327,480
328,482
329,480
333,479
338,478
347,477
352,476
362,476
373,477
378,476
383,475
385,474
382,474
381,474
372,473
367,473
362,474
353,473
345,472
339,472
330,471
328,471
322,471
325,471
327,472
328,470
333,469
337,469
336,469
340,470
336,469
339,468
335,469
329,469
323,468
316,468
306,467
303,467
293,468
293,467
290,467
288,467
288,467
291,467
292,466
299,467
306,466
314,467
323,468
330,467
339,466
348,467
353,467
362,467
371,467
379,469
388,468
391,468
399,468
405,468
408,467
415,467
419,468
424,469
428,469
429,468
436,468
441,469
443,469
450,469
453,469
458,472
459,472
459,471
464,472
465,471
468,471
468,472
467,472
468,474
465,474
459,474
461,474
458,474
457,474
455,474
455,475
454,477
453,476
450,476
453,476
454,476
452,477
451,476
449,478
445,477
445,477
439,477
439,477
436,477
431,477
425,477
420,481
414,482
410,482
403,482
405,481
401,479
399,478
399,478
398,481
396,480
396,480
393,480
397,480
397,480
398,480
399,481
396,482
395,482
395,482
392,482
392,483
391,483
389,483
389,484
387,484
389,485
392,485
394,485
397,485
399,485
400,486
403,488
400,487
404,487
405,487
408,487
409,488
408,488
404,488
404,490
397,489
399,489
399,489
397,489
397,489
398,489
395,490
400,493
396,491
400,490
402,490
404,491
405,491
405,491
403,491
407,493
400,492
405,492
402,493
400,493
397,493
395,494
390,494
392,497
386,496
391,496
391,496
392,495
393,495
394,495
392,497
396,497
395,497
397,497
399,496
399,497
398,498
398,498
393,500
393,499
391,499
389,499
387,499
385,499
385,499
386,500
384,501
388,501
389,500
391,500
393,501
393,502
395,502
397,502
397,503
400,503
400,503
401,503
400,503
397,503
398,503
396,504
396,508
397,506
396,504
397,505
399,506
397,505
402,505
403,507
406,508
406,507
407,508
407,508
409,508
406,509
409,509
407,511
408,511
404,510
403,513
399,513
399,512
394,512
398,512
400,511
399,511
400,510
402,508
401,508
404,507
401,508
405,509
406,508
407,509
405,510
402,510
399,511
398,511
391,512
391,513
386,514
382,514
379,514
375,514
374,515
375,515
371,515
375,515
376,515
375,515
376,516
374,515
375,514
377,515
379,516
378,516
376,516
374,515
372,515
366,517
366,516
365,516
363,516
364,517
363,517
361,518
364,517
363,518
366,518
370,519
370,519
373,519
375,519
373,519
378,520
374,520
377,519
379,519
378,520
376,520
375,521
370,521
373,521
369,521
373,521
373,522
374,521
376,521
377,521
375,521
379,521
376,521
382,520
384,520
384,521
384,522
384,521
380,521
381,521
378,521
377,522
375,521
372,521
371,521
371,521
368,521
371,522
372,521
374,521
376,520
376,521
378,521
381,522
380,523
386,523
384,523
385,523
386,522
383,523
384,523
382,521
378,521
381,521
380,521
381,522
383,524
382,528
386,526
387,526
390,526
394,527
396,528
398,528
402,528
402,529
406,529
407,529
408,529
408,529
407,529
405,530
405,532
399,530
402,530
402,530
401,531
401,531
401,531
400,531
403,533
401,535
406,534
407,532
408,531
409,531
410,531
409,532
412,532
405,531
407,532
406,532
403,532
401,532
396,531
394,532
393,533
386,533
388,532
386,532
383,532
382,533
380,533
380,533
382,532
381,532
384,533
385,533
385,532
384,532
381,532
381,535
382,536
379,534
378,533
377,534
375,534
374,534
370,533
370,536
371,534
372,534
373,534
376,534
377,534
381,534
379,535
385,537
389,538
389,537
389,537
390,537
387,535
388,533
384,533
387,534
388,534
388,534
389,534
389,534
387,534
391,535
389,535
393,535
399,535
401,535
403,536
405,536
403,536
407,536
402,538
407,538
405,538
404,538
403,537
402,538
398,538
400,538
395,541
400,540
398,539
398,539
399,539
400,539
399,539
404,539
405,543
408,542
407,541
406,541
406,541
405,542
399,541
400,541
398,543
395,542
393,543
391,543
389,543
387,543
383,543
385,544
384,547
384,547
384,544
383,544
385,544
386,544
384,544
386,545
386,545
383,545
382,545
377,545
378,545
375,546
373,546
373,548
371,547
369,546
370,546
367,547
370,547
371,547
374,547
376,548
377,548
380,548
382,548
379,548
382,548
382,549
383,548
384,549
383,549
381,549
382,549
379,549
384,549
386,549
386,549
389,553
390,551
391,550
398,551
399,551
406,552
412,552
414,553
417,553
418,553
418,554
421,555
417,555
422,555
421,556
420,558
419,557
416,557
416,557
417,558
415,559
419,560
420,560
422,563
424,562
424,562
426,562
429,563
428,563
430,564
428,564
426,566
422,565
416,566
414,566
411,567
407,568
402,568
398,568
393,569
389,570
383,570
382,570
380,571
380,572
379,572
378,573
376,577
376,576
368,576
368,576
369,574
365,576
362,576
360,578
354,580
352,579
346,579
347,579
347,580
346,581
345,582
346,583
346,582
350,583
349,583
356,584
359,583
360,584
362,584
365,586
361,586
365,586
361,586
366,587
366,588
367,589
367,589
369,590
367,591
369,591
372,592
375,592
380,592
384,592
389,593
395,594
396,594
403,594
407,594
411,595
413,595
415,596
416,597
417,598
415,598
418,599
416,599
415,600
415,601
412,602
413,605
411,603
411,604
414,605
415,606
416,607
418,608
416,608
419,613
418,615
417,616
419,616
418,617
416,618
413,615
407,616
408,618
400,619
401,621
397,622
393,623
390,624
389,625
384,627
387,628
382,629
385,629
385,632
385,632
384,635
385,636
381,637
385,638
385,640
384,642
383,643
382,642
379,643
379,645
373,649
375,648
373,649
373,650
373,651
372,654
373,656
374,656
372,657
377,658
376,658
379,659
380,662
378,660
381,663
381,664
379,666
382,666
380,666
379,667
378,668
374,669
376,668
376,668
377,673
378,670
376,670
376,669
377,669
372,668
373,668
370,667
368,667
364,665
359,664
353,663
347,662
336,661
333,659
324,660
320,658
315,657
311,655
308,654
311,653
309,653
317,652
325,654
331,652
339,651
348,650
357,650
370,649
376,649
390,649
401,650
409,649
419,648
425,648
430,648
438,648
438,648
448,647
451,648
452,647
453,646
452,646
452,645
452,644
447,643
448,642
446,644
441,642
436,640
430,639
427,637
423,637
419,636
416,636
412,637
405,633
401,631
394,631
392,629
389,629
386,628
383,629
379,626
376,627
372,626
365,625
364,623
363,622
361,620
360,619
359,617
356,615
357,613
354,612
358,611
360,610
361,610
364,609
366,608
365,607
369,606
366,605
372,604
372,604
372,603
372,603
372,601
369,600
373,598
371,597
377,596
380,595
383,593
387,591
391,591
393,589
399,588
400,586
409,584
413,583
415,583
418,582
420,580
417,579
418,577
419,577
416,576
415,574
413,573
413,572
413,572
410,572
412,571
412,570
412,570
413,569
413,568
414,568
416,566
414,565
417,564
414,563
413,562
412,560
406,559
405,558
401,556
396,554
395,552
391,550
389,548
388,546
383,543
385,541
383,539
385,536
385,533
386,530
386,527
388,525
385,522
390,519
387,515
388,512
387,510
386,506
382,503
381,499
375,495
378,491
376,488
375,484
374,478
373,473
372,470
376,468
374,464
380,460
385,457
387,454
390,451
393,448
393,443
398,442
395,437
399,433
400,428
400,425
401,420
400,417
402,414
406,411
405,406
410,402
414,399
417,395
421,392
423,387
428,384
433,380
434,376
439,372
440,367
439,363
438,359
431,355
429,351
425,346
421,341
416,337
412,333
405,328
401,323
393,317
392,313
391,308
389,303
387,297
387,292
384,286
387,282
383,277
386,274
387,271
385,264
383,259
382,255
378,250
378,246
371,242
373,241
371,237
369,234
368,231
366,228
363,226
365,224
362,222
369,223
368,220
370,219
373,219
373,218
373,217
376,218
372,220
376,221
376,221
375,221
373,222
371,224
368,225
368,226
367,228
366,229
366,230
365,231
366,232
366,233
368,234
371,235
377,239
379,240
383,240
383,240
387,241
387,239
388,238
393,237
395,238
396,239
398,239
396,239
400,240
396,240
401,241
405,241
406,242
407,242
410,243
410,244
416,246
415,246
424,246
426,248
431,249
434,251
438,251
439,252
445,252
442,255
449,256
448,259
448,261
442,260
440,261
432,263
430,264
424,265
419,267
414,270
406,271
400,272
394,273
386,274
383,276
379,277
375,279
373,281
369,282
370,284
368,286
366,287
369,288
367,290
367,292
369,297
365,297
365,296
365,297
363,299
365,301
363,302
362,304
363,307
359,308
362,309
362,310
365,311
367,313
371,315
374,318
378,318
379,319
387,320
391,322
395,324
398,325
401,326
404,328
406,330
403,332
407,333
408,333
408,335
409,337
409,339
409,342
412,342
410,342
416,343
420,345
422,346
424,347
427,348
429,352
431,353
428,354
433,354
432,355
432,358
430,359
425,361
422,361
421,363
415,364
416,366
413,367
411,368
410,369
407,373
406,373
406,373
404,374
405,375
405,378
402,379
401,380
395,383
395,382
394,384
392,385
388,385
384,386
380,388
378,389
372,393
369,392
369,392
369,394
369,395
369,397
367,397
370,398
368,400
371,401
374,403
375,403
376,404
378,403
376,407
378,408
375,411
376,410
377,411
377,412
377,413
376,413
374,414
378,417
376,418
383,419
386,420
388,420
391,422
394,424
393,425
397,427
393,426
401,427
402,428
401,429
399,429
398,430
393,431
394,435
389,434
386,434
384,434
383,435
382,436
382,438
378,438
381,441
380,441
382,442
383,444
381,444
384,445
387,446
386,447
391,449
391,449
392,449
395,449
393,451
397,451
397,452
398,452
404,453
404,454
408,455
409,456
409,455
414,456
416,458
423,460
425,461
427,460
431,460
434,461
433,462
437,463
436,462
437,466
436,468
432,469
427,469
425,469
418,467
417,467
414,468
411,469
406,469
402,469
397,471
396,472
391,472
392,473
392,473
389,475
385,476
379,476
372,476
365,477
352,478
346,479
335,480
322,480
311,481
299,482
291,483
286,483
279,483
281,484
283,486
286,486
293,486
300,486
313,487
328,488
337,489
350,489
359,491
370,490
381,491
387,492
399,492
408,492
417,492
424,494
430,497
434,497
436,495
431,495
433,496
427,497
422,497
417,497
409,498
398,499
393,499
383,500
380,499
375,500
369,501
366,502
363,503
359,503
359,503
355,504
357,504
357,504
355,504
353,506
350,506
346,506
346,506
339,506
342,507
339,508
336,508
334,510
329,509
325,509
326,510
321,510
324,510
326,510
327,511
331,512
332,512
337,512
344,512
350,512
356,513
362,514
368,514
376,514
378,514
387,514
395,515
401,515
406,514
411,515
415,515
421,519
419,520
424,516
433,516
439,516
446,516
452,516
455,517
465,517
467,517
475,517
481,517
486,516
490,517
495,518
494,520
499,522
494,520
498,519
499,519
497,520
495,519
493,518
487,517
488,516
480,516
481,515
478,514
474,515
470,516
466,516
459,517
457,516
450,516
448,517
443,518
436,519
428,519
421,519
411,520
406,520
399,520
393,519
389,519
384,520
380,520
378,520
375,520
377,520
375,521
376,521
378,521
377,519
380,520
382,521
380,522
383,522
383,522
381,521
381,522
376,522
377,521
375,521
373,520
377,521
376,521
379,522
380,521
379,521
385,522
388,523
392,523
395,522
398,522
401,522
405,522
402,522
406,521
404,521
404,522
402,522
400,521
396,521
397,520
392,520
395,521
396,520
394,521
394,520
394,521
393,521
397,521
395,520
400,520
402,521
402,521
403,521
401,521
398,520
398,521
391,522
393,523
388,522
386,522
382,523
377,522
376,521
375,522
369,519
373,523
373,522
372,521
373,521
373,521
375,522
378,524
378,523
380,525
378,525
376,525
375,525
368,526
368,526
367,526
365,526
364,527
362,528
361,527
359,527
356,528
359,528
362,528
363,529
368,529
370,529
369,529
374,529
372,528
375,528
378,529
378,531
377,529
377,528
374,528
376,528
372,529
374,529
377,528
377,529
378,529
379,529
377,529
382,528
380,528
386,529
386,529
388,530
387,529
386,528
382,529
383,529
377,529
381,528
380,528
380,531
379,533
380,532
376,528
379,528
381,528
382,529
384,529
386,528
389,528
392,528
392,529
396,529
398,528
398,529
398,531
397,530
396,531
395,530
391,530
394,531
391,532
390,532
389,533
385,532
387,532
387,532
386,532
389,532
391,532
393,533
396,536
394,537
398,536
397,536
399,536
399,536
397,533
396,532
399,533
393,533
395,534
394,534
395,534
395,534
394,534
395,535
397,536
395,535
401,535
404,536
406,537
408,537
409,537
408,538
411,541
405,539
408,538
409,538
407,538
407,539
405,539
403,541
404,540
400,539
402,540
404,540
404,540
406,540
406,540
408,542
411,542
409,541
413,541
413,541
411,542
409,542
404,542
403,542
400,542
395,543
396,543
394,543
390,543
388,543
385,543
387,547
387,545
389,543
391,543
393,543
394,544
396,543
393,544
397,544
395,544
396,544
395,544
394,543
390,543
390,544
384,546
385,545
386,544
384,544
383,544
383,544
380,544
384,544
382,546
388,546
390,545
392,544
394,543
394,543
391,544
393,544
388,545
391,543
389,542
387,542
386,543
384,542
381,542
382,542
379,543
381,543
381,542
383,541
385,541
385,541
386,542
389,542
389,541
391,540
392,541
391,541
390,540
388,539
386,539
388,541
387,540
386,540
386,538
385,538
385,538
384,539
384,538
386,540
389,538
391,537
393,537
392,537
394,536
391,536
391,536
393,538
389,536
387,535
387,534
382,535
383,535
377,535
379,534
381,536
379,534
379,534
380,533
379,532
385,532
381,532
389,532
390,532
391,530
391,530
391,531
386,529
387,530
380,528
384,530
383,529
380,529
378,529
377,528
373,527
374,528
374,527
374,528
375,526
376,524
378,524
380,524
377,523
381,522
380,521
380,522
378,521
374,519
373,518
371,517
366,516
368,517
364,516
365,518
363,517
358,514
360,513
362,512
361,511
367,510
369,509
373,510
376,509
376,507
381,506
382,505
383,505
385,504
385,504
387,504
387,502
384,500
388,500
389,499
389,498
391,497
391,499
392,497
394,495
394,494
400,493
403,493
407,492
409,491
411,493
410,493
413,494
409,493
413,491
414,488
412,487
411,487
412,487
408,486
409,486
405,486
408,487
410,487
411,486
414,486
417,487
417,488
423,488
423,487
429,487
430,488
431,488
432,489
430,488
431,488
433,488
429,489
434,489
433,488
432,488
432,490
430,490
432,490
434,489
436,489
439,490
441,490
443,490
446,492
445,491
446,491
448,491
449,491
449,490
448,490
446,491
445,494
437,492
436,492
435,491
431,492
428,493
426,493
421,493
423,493
416,494
418,495
420,495
420,495
420,495
419,496
415,497
417,497
411,497
412,497
414,497
413,499
409,499
406,499
399,499
399,500
391,500
392,500
390,500
389,500
388,501
388,502
384,505
389,503
383,502
388,503
388,503
387,503
386,502
386,502
383,504
383,504
381,503
380,503
377,503
373,503
371,504
370,504
367,506
367,503
367,504
369,504
371,504
371,503
374,503
376,503
377,505
382,504
380,502
383,500
385,501
383,501
386,501
386,501
384,500
386,501
386,501
385,500
387,499
386,498
391,498
394,500
398,498
401,496
405,493
409,490
414,486
414,482
421,475
425,468
430,461
433,454
436,445
438,435
440,427
438,419
442,411
442,405
445,400
446,396
448,394
447,393
449,394
444,395
445,398
445,402
439,407
435,411
429,414
423,418
421,422
412,424
410,425
402,423
392,420
382,415
368,409
355,399
344,389
329,376
321,365
311,355
303,345
298,335
292,326
289,320
288,315
286,311
287,306
288,302
287,300
288,298
286,295
289,293
293,293
298,292
302,292
305,292
309,292
313,292
313,292
309,293
260,294
124,295
136,296
133,297
87,299
34,301
0,301
0,303
0,304
0,307
0,308
0,311
0,312
0,315
0,318
0,320
0,321
0,323
0,326
0,329
0,331
0,333
136,334
343,336
483,339
457,341
544,343
666,346
776,348
795,349
790,349
796,350
794,350
796,351
796,352
794,352
793,351
795,349
794,349
797,349
797,349
796,348
796,347
794,345
795,345
795,345
795,344
796,343
795,344
795,344
795,346
791,349
793,354
765,364
649,376
580,393
534,415
460,442
344,474
218,511
127,551
85,593
47,637
54,681
95,727
187,772
341,820
493,870
527,923
612,979
714,997
797,997
796,998
791,998
794,998
787,998
797,998
795,998
795,999
794,999
796,999
792,999
796,999
796,999
795,999
796,999
795,999
794,999
739,999
671,999
624,1000
578,1000
526,1000
482,1000
446,1000
425,1000
428,1000
442,1000
476,1000
515,999
553,1000
585,1000
605,1000
618,1000
623,1000
619,1001
619,1000
614,1001
611,1000
609,1001
607,999
603,1000
601,1000
594,1000
590,1000
582,1000
572,1000
563,1000
554,1000
543,1001
535,1000
526,999
518,1000
509,1000
500,1000
491,1000
484,1000
475,1000
467,1000
462,1000
455,1001
450,1001
442,1000
438,1000
433,1001
428,1000
424,1000
420,1001
416,999
415,1001
408,1001
407,1001
405,1000
401,1000
402,1000
400,1000
398,1000
398,1001
393,1001
396,1001
394,1000
394,1000
393,1001
392,1000
392,1000
391,1000
387,1000
389,1000
390,1000
394,1000
420,1000
465,1001
519,1000
601,1000
646,1000
667,1000
719,1000
768,1001
795,1001
794,1001
790,1000
794,1001
786,1001
794,1001
736,1000
574,1000
447,1001
333,1001
287,1000
206,1000
89,1001
0,1001
0,1001
0,1000
102,1001
230,1000
361,1000
481,1001
584,1000
678,1000
726,1000
760,1000
792,1000
789,1000
791,1000
762,1000
717,1000
666,1000
608,1000
540,1000
474,1000
415,1000
372,1000
344,1001
332,1000
342,1001
365,1001
398,1000
441,1000
476,1000
507,1001
523,1000
527,1000
526,1001
506,1001
470,1000
441,1000
407,1001
385,1001
371,1000
367,1000
377,1001
391,1001
403,1000
419,1000
423,1001
429,1001
414,1001
383,1000
338,999
280,996
206,991
132,981
92,967
66,950
22,931
0,913
0,890
0,869
0,847
0,826
0,805
0,786
0,768
0,753
0,736
0,722
0,711
0,701
0,693
0,688
0,683
0,680
0,679
0,679
0,680
53,682
157,684
244,689
319,693
389,699
466,705
548,711
627,718
680,725
715,733
759,741
794,750
789,758
792,768
794,776
795,786
796,795
796,804
794,814
795,825
790,833
793,842
796,852
770,862
748,872
727,882
697,892
667,903
625,912
590,922
556,932
524,940
499,947
483,953
470,958
471,966
465,970
471,973
475,977
483,980
491,983
501,984
505,986
514,989
509,988
510,989
507,989
499,990
486,990
473,990
455,991
443,990
423,990
402,990
380,989
358,989
334,988
313,986
285,986
264,981
242,978
223,974
209,972
196,967
189,963
189,958
187,955
192,949
193,942
194,936
194,930
190,922
187,916
183,910
176,903
173,896
173,890
173,884
180,876
186,870
200,863
217,856
239,850
261,842
287,836
310,829
334,822
353,816
375,809
391,803
406,796
417,789
428,783
435,776
450,769
465,763
493,757
526,752
566,746
609,738
658,732
705,726
728,720
746,714
779,708
796,703
795,696
795,691
795,686
777,680
748,674
707,670
671,664
622,660
558,654
490,648
418,643
343,638
275,633
202,628
141,622
81,618
62,613
33,608
0,604
0,599
0,594
0,590
0,585
0,580
0,576
0,571
0,567
0,562
0,558
0,553
0,550
0,545
0,541
58,537
145,532
211,529
255,525
274,520
278,518
275,513
264,509
256,504
240,500
219,496
203,492
193,488
195,485
208,480
221,475
245,470
279,466
328,461
382,456
439,451
495,447
548,442
592,436
637,431
669,426
695,420
712,415
721,409
726,405
729,398
723,391
729,386
738,380
753,373
765,368
765,362
773,357
786,350
788,344
794,339
796,334
795,328
797,324
794,319
792,313
796,308
791,303
796,298
796,293
795,288
795,283
771,278
715,274
671,271
621,267
565,263
498,260
429,257
370,254
324,251
295,248
285,246
290,244
306,241
331,239
358,237
382,235
402,233
414,232
421,230
422,228
417,227
410,226
399,225
393,224
386,223
379,222
378,222
373,220
370,221
365,220
350,220
335,221
311,220
279,220
242,221
196,221
142,220
87,222
68,222
43,222
0,223
0,225
0,225
0,227
0,228
0,229
0,230
0,233
0,234
0,237
62,240
162,242
252,244
333,247
402,249
471,252
535,255
592,257
644,259
685,263
714,265
736,268
738,271
738,274
724,277
701,280
672,283
639,286
603,289
572,292
535,295
509,298
481,301
456,304
434,307
412,310
392,313
374,316
352,320
336,323
316,325
295,328
275,331
251,334
232,337
216,340
195,343
177,345
158,349
139,351
119,354
96,357
77,361
58,364
39,368
0,371
0,374
0,377
0,380
0,382
0,385
0,388
0,391
85,394
166,396
219,399
260,401
289,404
322,406
363,408
410,411
461,413
518,414
572,416
627,418
674,420
718,421
748,423
765,424
784,424
795,425
789,426
795,427
791,428
770,428
746,429
715,429
676,431
633,431
580,431
533,431
482,431
436,431
396,431
360,432
329,431
304,430
281,430
266,430
254,430
241,430
234,431
227,430
222,430
221,429
218,429
223,428
226,428
229,428
235,427
238,426
244,426
251,426
254,425
263,424
268,424
272,423
276,423
278,422
285,421
290,420
297,419
303,418
309,417
313,418
317,416
316,415
318,414
317,413
313,412
306,411
298,410
286,411
276,410
260,409
249,408
240,407
228,405
218,404
211,402
204,403
205,401
204,400
215,399
231,398
251,398
276,397
308,396
341,395
382,394
420,393
470,393
515,392
559,391
602,390
640,390
670,389
699,387
714,386
729,385
730,384
719,383
699,382
672,382
633,380
593,379
546,378
499,377
453,375
409,375
372,374
343,373
318,372
306,370
301,369
303,369
311,368
321,366
335,366
350,365
360,365
375,364
383,363
390,363
394,362
394,362
397,360
399,362
397,361
399,360
402,360
406,360
411,359
414,359
422,359
428,361
431,359
429,359
425,358
416,358
403,358
381,358
362,359
335,358
311,358
286,358
264,358
245,358
234,358
225,358
228,358
237,358
249,358
268,357
293,357
320,357
353,357
382,356
419,358
453,358
484,356
512,355
537,355
558,355
575,355
582,354
590,355
584,354
575,353
561,353
541,353
521,353
500,352
474,352
452,351
428,351
402,351
378,350
350,349
324,349
299,349
277,349
254,348
237,347
223,347
215,346
209,346
215,346
226,345
242,346
262,345
285,344
308,344
335,343
357,342
384,342
407,342
425,342
438,341
451,341
457,340
466,340
465,339
470,339
472,338
473,338
470,337
468,336
463,336
462,335
454,335
455,334
450,333
446,333
441,332
437,332
430,331
429,330
420,329
421,328
417,328
414,328
411,328
408,327
404,327
405,326
404,326
402,325
401,326
398,325
394,324
390,324
382,323
378,323
369,322
362,321
353,322
341,321
333,320
323,320
312,319
307,319
297,319
289,318
284,320
275,320
270,318
265,317
262,317
266,317
271,317
278,316
292,317
306,317
329,317
354,317
381,317
407,317
433,317
455,317
475,318
485,317
499,317
507,317
511,317
509,317
507,316
500,318
498,317
490,318
489,318
488,318
483,318
478,319
472,319
461,321
451,322
430,322
412,323
391,323
366,322
341,322
319,323
295,324
280,324
264,324
261,325
259,325
262,326
271,327
284,327
299,329
320,329
338,329
366,330
392,331
417,331
443,332
469,332
489,335
509,334
525,334
537,334
546,334
547,335
546,335
541,336
530,336
521,336
509,336
496,336
483,337
469,337
457,337
447,337
433,337
426,337
416,337
407,337
400,337
390,336
385,337
380,337
371,337
367,336
362,336
358,336
355,337
350,337
350,337
349,337
349,337
350,337
352,337
355,338
359,338
360,338
367,339
371,339
377,339
381,339
384,339
385,339
390,340
387,340
391,340
392,340
389,341
387,341
383,341
378,341
377,341
371,342
371,343
370,344
369,343
368,343
366,343
368,343
371,343
367,344
372,345
372,344
374,344
375,345
373,345
373,345
375,345
374,345
376,345
375,345
375,346
377,345
374,345
376,345
378,345
380,345
382,346
383,346
381,345
383,344
381,344
384,345
387,344
387,345
390,345
390,344
388,344
391,344
388,344
392,345
393,345
393,344
393,344
394,344
391,344
394,343
390,343
395,343
395,342
395,342
396,342
397,343
393,343
396,343
391,343
395,343
394,344
393,344
392,344
390,345
386,346
387,346
384,346
387,346
387,346
386,347
386,347
386,347
384,347
386,347
386,348
387,348
388,349
388,349
389,349
390,350
389,350
393,350
393,351
395,351
397,352
396,352
398,353
399,354
397,354
400,355
398,355
398,356
398,356
393,357
393,358
393,359
391,360
391,360
391,361
389,362
390,363
386,364
388,365
389,366
390,367
391,368
393,369
393,370
395,371
392,372
396,374
398,374
398,376
398,376
400,378
397,379
400,381
396,383
399,384
400,385
401,387
402,388
403,389
399,391
401,392
396,393
399,395
399,396
397,398
396,399
394,400
390,401
390,402
385,403
388,404
387,405
385,405
385,406
386,406
383,407
384,408
380,409
384,410
385,410
384,411
384,413
385,413
382,414
383,416
383,416
382,417
381,418
379,419
377,419
376,419
373,420
373,422
374,422
375,423
377,423
376,424
381,424
385,425
388,426
395,426
401,427
407,427
415,427
419,428
428,428
433,429
437,429
440,429
441,429
440,430
437,430
429,430
425,431
417,432
409,432
401,432
393,432
385,432
379,432
371,433
371,433
368,434
367,434
368,434
368,434
368,434
372,435
370,435
376,435
380,436
379,436
381,436
383,436
383,436
386,437
383,437
388,438
389,438
389,438
390,438
389,438
389,438
391,438
388,438
393,439
392,439
392,439
392,439
391,439
391,439
392,439
389,439
394,440
394,440
394,439
395,439
392,439
393,439
394,439
394,439
397,441
397,441
397,441
398,441
396,441
398,441
399,439
400,439
401,439
400,439
399,438
400,438
396,438
398,438
399,438
397,438
398,438
396,437
393,437
395,436
390,436
391,435
392,434
390,434
390,433
390,432
386,430
388,429
383,428
386,427
389,426
389,426
390,424
391,423
389,421
392,420
389,419
394,418
393,416
394,416
393,414
394,413
391,411
394,411
391,409
394,409
395,408
395,407
392,406
394,405
391,404
394,404
394,403
395,402
395,402
396,403
394,403
395,401
392,400
395,400
397,399
398,399
398,399
398,399
397,398
398,398
397,398
400,398
399,398
398,398
398,398
395,398
397,398
397,398
396,398
398,397
399,398
398,398
399,398
396,398
396,398
397,398
396,398
398,398
398,398
397,398
398,399
393,399
394,398
394,398
394,398
394,399
394,399
392,399
393,399
388,399
390,399
392,399
392,399
392,399
394,400
391,399
394,400
390,400
393,400
394,400
393,400
392,400
392,400
387,401
390,401
383,401
386,400
388,401
388,401
388,401
388,401
387,402
389,401
385,401
391,401
391,401
391,401
392,402
393,402
391,402
392,402
387,402
392,402
392,402
393,403
393,403
395,403
394,403
397,404
399,403
400,404
402,404
402,404
404,404
405,405
404,407
406,406
406,406
406,406
407,406
405,406
406,407
406,407
403,407
405,407
404,407
403,408
402,408
398,407
398,408
397,408
392,408
393,408
391,408
389,408
388,408
384,408
385,408
386,409
385,409
384,408
383,408
383,408
383,408
381,408
384,408
385,409
385,408
386,408
386,408
387,408
388,408
384,408
388,407
390,408
389,408
390,407
390,407
388,407
390,407
386,407
390,407
390,407
388,407
389,407
388,406
387,407
390,406
388,406
392,407
393,406
393,406
394,406
392,405
393,405
395,405
391,405
396,407
396,407
395,408
395,408
392,407
391,406
391,405
390,405
393,406
391,406
391,406
391,406
389,406
389,407
391,407
391,407
392,409
392,408
390,408
391,408
389,408
389,408
391,408
391,409
391,409
391,409
389,409
391,410
390,410
390,410
392,410
392,411
391,411
392,411
389,412
391,412
389,412
388,413
392,413
391,414
391,413
392,414
389,414
392,414
388,414
392,414
391,415
392,416
390,416
389,416
386,415
389,416
384,416
387,416
386,416
386,417
383,417
384,418
381,418
384,418
386,419
385,419
386,419
387,420
387,420
391,420
390,420
394,421
399,421
400,421
402,421
403,423
403,423
405,422
404,423
407,423
407,423
405,423
405,425
401,424
402,424
402,424
400,425
401,425
402,425
400,426
400,426
396,426
397,426
398,426
398,427
398,427
399,427
398,427
399,428
394,428
396,428
397,428
397,428
397,429
397,429
394,428
396,431
390,430
390,430
389,430
386,429
384,430
382,430
377,431
378,432
371,431
371,431
372,432
373,434
373,434
375,434
375,433
381,434
382,434
392,434
399,434
406,434
413,433
420,434
423,434
431,434
429,435
437,435
437,436
435,436
430,436
425,437
416,437
411,438
404,439
395,439
388,439
381,439
377,440
374,440
369,440
369,440
369,441
370,441
371,441
371,442
375,442
377,442
376,442
380,443
381,443
382,443
383,444
382,444
384,444
384,444
384,445
388,445
388,445
390,446
391,446
390,446
394,446
395,447
398,447
398,447
398,448
399,448
399,448
396,448
399,449
398,449
398,449
397,449
396,450
394,450
395,450
391,450
394,451
395,451
394,451
394,451
394,452
391,452
393,452
389,452
391,453
393,453
392,453
393,454
393,454
390,454
391,454
388,454
391,454
392,454
390,454
390,454
390,453
388,453
389,453
387,453
390,453
391,452
391,451
391,451
392,450
390,450
392,449
394,449
395,448
395,448
395,446
397,446
397,446
395,445
398,444
399,444
399,444
399,443
397,442
398,442
396,442
394,442
396,441
394,442
394,441
394,441
391,440
393,441
393,440
391,441
393,440
392,441
393,441
393,442
390,442
393,441
393,442
394,442
395,442
395,443
394,443
396,444
392,444
395,444
394,444
395,445
396,445
396,446
397,446
398,447
394,447
399,448
397,448
399,449
399,449
399,450
397,450
399,451
395,451
398,451
399,452
397,452
398,452
396,454
395,455
396,455
391,455
394,455
395,456
394,456
394,456
391,457
391,457
392,458
389,459
392,459
391,459
390,459
391,460
388,459
388,460
389,461
386,461
389,461
389,462
388,463
388,463
386,464
387,464
388,464
389,464
389,464
389,465
389,465
390,465
387,466
390,466
391,467
391,466
392,467
392,467
390,467
391,467
387,468
389,468
392,468
391,469
391,469
392,469
389,470
392,470
389,471
391,471
393,471
394,471
394,472
395,472
392,472
395,473
391,473
396,473
396,474
396,474
396,474
398,475
394,475
397,476
393,476
398,476
398,476
398,477
398,476
398,476
395,477
397,477
394,478
396,478
396,479
395,479
393,480
393,480
390,482
389,481
388,481
388,481
388,481
387,481
387,481
388,481
388,483
390,482
390,482
391,482
391,482
390,482
392,482
392,483
391,483
393,482
395,482
394,482
395,482
392,482
393,482
394,483
391,483
394,483
395,482
393,483
394,483
390,482
392,483
392,483
393,483
392,482
392,483
391,482
392,482
390,482
392,482
393,483
393,482
395,481
396,481
394,482
397,482
393,482
397,482
401,482
398,482
398,482
398,482
394,482
396,482
391,482
393,482
396,483
396,483
396,482
395,482
392,481
395,481
391,481
395,482
394,481
394,481
394,481
395,481
392,481
394,481
390,481
394,482
394,481
393,481
393,481
394,481
390,482
392,482
389,482
394,483
391,482
392,482
392,482
392,482
389,482
390,482
392,482
392,483
392,482
391,483
391,483
392,483
390,483
392,483
392,483
393,484
393,483
391,483
394,483
393,483
391,482
393,483
392,485
392,484
392,484
390,485
392,485
392,485
391,485
392,485
392,486
393,486
393,485
391,485
394,485
395,485
397,485
399,485
402,486
401,486
403,486
400,486
404,486
403,486
404,486
403,487
403,488
399,487
399,487
394,488
397,488
397,488
394,488
393,488
391,488
388,488
389,488
385,488
388,489
388,489
389,489
389,489
388,489
387,489
390,489
388,489
392,488
392,489
392,490
392,491
389,490
388,489
390,489
385,490
389,490
388,490
385,490
385,491
382,492
379,491
378,491
376,491
375,490
373,489
372,489
374,490
374,490
374,489
379,489
385,489
390,489
398,489
404,489
413,490
419,490
425,490
433,490
438,490
442,490
444,490
441,490
441,490
435,490
427,490
422,491
414,491
405,491
398,491
387,492
383,491
376,491
371,492
371,492
369,492
368,492
369,492
367,493
371,492
371,492
374,493
375,493
376,492
376,492
378,492
377,493
380,493
379,493
382,493
384,493
385,493
386,493
389,493
388,494
392,494
395,494
396,494
397,494
399,494
399,494
401,495
399,496
401,495
403,494
401,494
400,495
398,495
396,494
396,495
393,495
394,495
392,495
390,495
389,495
385,495
385,495
385,496
382,496
384,495
383,495
383,495
383,495
380,494
381,494
382,495
382,494
385,494
387,494
387,493
391,493
389,493
393,492
396,492
397,491
399,490
400,489
401,489
402,488
398,487
401,486
406,487
405,486
404,484
406,482
403,482
405,481
402,480
405,480
407,479
406,478
405,477
406,477
402,476
403,475
398,473
402,473
402,473
400,472
399,471
397,470
393,469
394,468
390,468
393,467
393,467
391,467
391,467
391,467
388,467
390,467
385,467
390,467
390,467
389,468
388,467
388,467
386,467
389,467
388,467
389,468
390,468
391,468
390,468
392,468
390,468
393,469
393,469
395,469
397,470
395,470
397,470
398,470
396,470
400,471
399,471
399,472
400,472
397,471
398,472
399,473
395,473
398,473
397,473
395,473
395,474
392,474
393,474
392,475
394,474
392,475
393,475
391,476
392,476
388,476
389,476
389,477
389,477
390,477
391,477
388,478
389,478
385,478
388,478
391,478
390,478
390,478
391,478
388,478
390,478
386,478
389,478
390,479
391,479
391,479
392,479
389,479
392,480
388,480
392,480
393,480
394,480
394,480
395,481
391,481
393,481
388,481
392,481
392,481
391,481
392,482
391,482
389,482
390,483
388,483
390,482
390,483
390,484
391,484
393,484
391,484
393,484
395,485
395,484
397,484
396,485
397,486
397,486
395,486
397,487
397,487
395,486
396,487
392,487
394,487
393,487
392,488
394,488
392,487
393,486
394,487
392,488
393,487
393,488
391,488
393,488
393,488
393,489
393,489
391,489
394,489
393,489
395,489
396,489
396,489
395,489
395,489
393,489
395,489
395,489
396,489
395,489
394,489
393,488
393,488
390,489
392,488
392,488
390,488
390,488
390,488
389,488
390,488
387,488
390,487
391,488
392,488
393,487
392,487
392,488
394,488
393,488
396,488
396,488
396,488
396,488
394,488
394,488
396,488
392,488
395,488
395,488
394,488
394,488
392,488
392,488
395,489
396,490
394,490
394,489
394,489
394,488
389,488
390,487
392,488
390,488
390,488
391,488
391,488
392,488
390,488
392,488
395,489
395,489
396,488
396,489
393,488
395,489
390,489
392,490
393,490
392,489
392,489
393,489
389,489
391,489
387,489
391,491
391,490
393,489
393,490
392,490
389,490
392,490
388,489
393,491
393,491
391,490
391,490
392,490
389,490
392,490
387,490
392,490
391,490
391,490
391,490
392,490
390,490
393,490
394,490
397,491
397,491
396,490
397,490
398,489
396,490
399,489
400,490
401,490
400,489
398,489
398,490
398,490
395,489
397,490
396,490
396,490
396,490
393,490
395,490
395,490
393,490
395,489
395,490
393,490
393,490
390,489
392,490
392,490
393,490
392,490
394,490
391,490
391,491
387,491
389,490
387,491
386,491
384,491
383,493
377,492
377,492
371,491
371,491
373,492
371,492
371,492
372,492
372,492
377,492
378,492
385,492
393,492
400,492
407,493
415,492
419,493
428,492
430,492
439,492
440,492
439,492
438,494
433,492
424,492
419,492
408,492
404,492
397,492
389,492
384,493
379,492
372,493
372,492
370,492
370,492
371,493
371,493
374,492
376,493
375,492
378,492
379,492
380,493
381,492
380,493
381,493
379,492
376,492
378,493
376,494
376,493
376,494
375,494
378,496
380,494
381,494
388,494
392,494
398,494
403,494
404,496
409,495
412,495
414,495
415,495
415,495
414,495
414,495
411,496
411,495
409,495
408,496
407,495
404,496
402,496
401,496
396,497
396,497
393,497
388,496
384,497
380,497
372,497
368,496
360,497
359,497
355,497
354,497
354,497
357,497
358,497
367,497
371,496
384,496
393,495
402,494
411,494
416,493
421,492
427,493
425,492
429,491
428,489
427,489
425,488
420,487
418,486
418,487
414,487
413,485
411,485
408,484
406,483
402,481
399,480
400,480
397,478
395,478
395,477
393,477
393,477
392,476
389,476
392,476
389,476
389,475
390,475
387,475
389,475
389,475
387,475
390,476
389,475
389,475
389,476
386,476
389,476
388,477
387,478
389,477
389,478
390,478
391,478
388,478
392,478
393,479
394,480
395,480
395,480
396,481
396,480
393,481
397,482
396,481
398,483
397,482
397,482
395,483
397,483
393,484
396,484
397,483
396,486
394,486
393,486
392,486
394,485
390,486
393,487
393,487
393,487
392,487
390,487
389,488
390,488
387,488
390,488
390,489
390,489
390,489
387,489
387,489
389,489
385,490
389,490
389,491
389,491
389,491
387,491
388,492
390,491
390,492
390,492
393,493
390,493
389,493
387,493
388,493
390,493
390,494
389,494
392,495
389,495
391,495
390,495
390,495
393,496
392,496
393,497
396,498
392,498
394,498
393,498
392,498
395,498
395,499
394,499
396,501
391,501
395,501
393,502
395,502
394,501
393,502
393,502
393,502
390,502
394,501
392,501
394,501
394,501
394,501
394,502
394,502
390,503
394,503
394,504
395,504
395,504
395,505
392,505
394,505
391,505
393,505
394,505
394,505
393,505
393,505
392,505
394,506
391,505
395,505
394,505
394,505
394,505
392,505
392,505
394,506
391,505
394,505
395,506
394,505
394,505
392,506
392,505
394,505
390,506
393,505
394,505
393,505
393,506
390,506
391,507
391,506
392,506
392,506
392,506
392,506
393,507
390,507
392,507
393,507
394,507
394,507
395,507
392,507
395,507
392,508
393,508
395,507
394,507
394,508
395,508
391,508
393,508
391,508
391,509
393,509
393,508
392,509
392,509
390,510
392,510
389,511
392,511
391,510
391,510
391,511
392,511
390,511
393,511
392,511
393,511
393,512
394,512
393,512
394,511
391,512
394,513
395,513
395,514
395,513
394,513
392,514
394,514
391,513
395,514
396,515
394,515
396,515
395,514
392,515
394,514
390,516
395,516
393,515
393,515
394,516
392,516
392,515
393,516
390,516
393,516
392,516
392,516
392,517
390,517
390,517
392,517
392,517
393,517
394,517
392,517
393,517
390,517
392,518
393,519
393,519
393,518
393,518
392,518
391,518
389,518
389,518
390,519
391,519
391,519
391,519
390,518
392,519
390,519
391,518
394,519
394,519
395,519
396,520
394,519
397,519
393,519
397,520
399,520
400,519
399,519
400,520
397,519
399,520
394,520
399,519
398,520
398,520
397,520
397,520
393,520
396,520
392,520
396,520
396,520
395,520
395,520
395,520
391,520
394,520
392,521
393,520
394,520
392,520
391,520
392,520
389,520
393,520
394,521
393,520
393,521
391,521
389,520
390,520
385,520
386,520
385,520
381,520
380,520
374,519
373,519
373,519
369,520
373,520
375,520
376,521
382,520
384,520
390,520
398,521
403,520
413,521
419,521
425,522
432,521
431,521
435,521
437,520
437,521
433,521
428,521
421,521
413,521
402,520
396,521
389,521
384,520
380,521
376,521
372,520
371,521
367,520
369,520
373,520
373,520
374,520
376,520
376,521
379,521
375,520
379,520
382,520
384,519
385,520
387,520
386,520
388,520
384,519
390,520
390,520
391,519
391,519
392,520
389,519
393,519
389,519
394,519
395,519
395,519
395,519
396,519
392,519
395,518
392,518
395,518
395,518
395,517
396,518
397,519
392,518
395,518
395,518
394,518
395,517
393,517
393,517
393,518
390,517
392,518
392,517
392,517
392,517
390,517
392,517
393,516
390,516
393,515
392,515
392,514
393,513
390,513
391,513
391,511
390,511
393,510
393,509
393,507
394,507
391,506
393,506
395,505
396,503
394,501
395,500
394,499
394,498
391,497
394,496
393,495
393,494
393,493
393,492
390,491
392,490
389,489
391,488
393,488
393,487
393,486
395,486
392,485
395,485
391,484
395,486
395,484
395,483
396,483
397,483
394,483
396,482
393,483
397,482
397,482
397,482
397,482
398,482
395,482
397,482
393,483
397,483
397,483
397,483
397,483
397,483
394,483
396,483
396,484
397,484
397,484
397,484
398,484
398,485
395,485
397,485
400,486
397,486
398,486
397,486
398,486
398,486
395,487
396,487
395,487
394,487
394,487
391,487
393,488
392,488
390,487
392,488
392,488
391,488
391,488
389,488
391,488
391,487
390,488
391,489
391,490
390,489
390,488
387,488
390,488
389,488
390,488
391,490
391,490
391,490
391,490
387,490
391,489
390,488
391,488
392,489
391,489
389,489
391,489
388,489
392,490
393,490
392,490
393,491
391,491
389,491
391,491
387,491
391,492
392,492
392,493
392,493
391,493
390,493
393,494
389,494
394,494
394,494
394,496
394,495
393,495
391,495
393,496
390,496
393,496
393,496
394,497
393,497
393,497
392,497
394,497
394,497
394,498
395,498
395,499
395,499
392,498
393,498
394,498
395,498
395,498
395,498
395,499
394,498
393,498
393,499
396,499
395,499
395,499
396,499
393,499
395,499
393,499
393,499
394,499
394,499
393,499
394,499
391,499
393,499
392,499
393,499
392,499
392,499
391,499
392,500
389,499
391,499
391,499
392,499
392,499
392,498
391,498
394,499
389,498
392,498
394,498
393,498
394,498
394,499
392,498
394,498
390,498
393,498
395,498
393,498
394,498
393,498
392,499
396,500
392,501
395,499
395,499
394,499
395,499
393,499
392,500
394,500
392,501
394,500
394,500
394,500
395,500
391,500
391,499
392,499
391,499
393,498
393,498
392,499
393,499
389,499
391,499
392,500
393,500
393,500
394,500
393,501
394,501
390,501
392,501
394,502
393,502
394,502
394,502
392,502
394,502
391,502
393,502
396,502
395,503
395,503
395,503
392,503
394,503
389,503
392,503
393,503
393,503
392,503
393,503
390,503
392,503
388,503
393,503
393,504
393,503
392,504
393,504
391,503
395,504
392,504
395,504
394,504
394,505
393,503
394,504
390,505
392,505
393,505
392,505
391,505
391,505
390,505
391,505
390,505
392,505
393,505
393,505
393,505
392,505
392,505
393,505
390,505
393,505
393,505
392,505
392,505
390,505
390,505
391,505
389,505
393,506
393,506
391,505
393,506
390,506
392,506
394,505
396,506
397,506
398,506
398,507
399,507
396,507
398,506
399,506
400,506
401,507
402,507
398,505
400,505
395,506
397,506
398,506
397,506
397,508
397,509
391,508
393,507
389,507
392,508
392,507
392,507
392,508
391,507
389,508
392,508
388,508
392,508
391,508
391,509
391,508
391,508
387,508
389,508
385,508
388,508
387,508
385,509
383,508
382,508
376,508
376,508
374,508
373,508
373,508
373,509
374,508
377,508
378,508
384,508
390,508
397,508
404,508
411,508
418,508
425,508
429,508
437,508
438,508
439,508
439,508
434,509
429,508
423,508
414,507
408,507
400,508
392,507
385,507
377,508
375,507
372,507
371,507
370,507
370,507
371,508
373,508
372,508
376,508
377,507
380,507
382,507
383,507
383,507
386,508
383,508
388,507
390,507
390,507
391,507
391,507
390,507
393,509
389,509
393,509
393,508
393,508
394,507
393,507
392,507
395,507
391,507
396,507
395,507
395,507
396,507
393,507
393,507
395,507
391,507
395,507
395,507
394,507
395,507
393,507
393,508
396,509
396,508
395,507
396,506
395,506
395,506
391,506
392,507
392,506
392,504
391,506
392,505
391,505
391,504
388,504
389,504
390,503
389,501
390,501
392,501
389,500
392,499
391,498
392,497
394,496
395,495
394,494
395,493
392,492
395,491
394,490
397,490
396,488
395,486
394,485
395,484
391,483
395,482
393,482
394,481
393,480
393,479
393,478
393,477
390,477
393,476
393,476
393,475
394,474
394,474
392,473
395,473
391,473
394,472
396,474
394,473
393,472
393,472
392,472
394,471
391,471
396,472
397,472
396,472
397,472
395,473
395,473
397,473
393,473
397,474
398,474
398,474
398,474
396,475
397,475
399,475
394,475
399,476
400,476
398,476
398,476
396,476
396,477
397,477
397,477
396,478
395,477
394,478
395,478
391,478
392,478
393,478
393,479
393,480
393,479
390,479
392,480
388,480
391,480
392,480
392,480
393,481
392,480
389,480
392,480
386,481
389,480
391,480
391,481
391,482
390,481
388,481
390,481
387,481
391,481
391,481
390,481
390,482
390,482
387,482
390,482
386,483
390,483
390,484
389,484
388,484
389,484
387,484
390,485
392,485
392,485
393,485
393,486
392,486
394,486
392,486
395,487
397,487
396,487
396,488
395,488
394,488
394,488
391,489
395,489
394,489
393,490
393,490
393,492
392,492
393,491
392,491
394,491
394,492
394,492
393,492
390,493
391,493
391,493
392,493
392,493
393,493
393,493
393,494
392,495
393,494
394,493
395,494
396,493
396,493
394,493
396,495
392,494
393,494
395,494
394,494
394,495
394,494
392,494
395,496
391,496
394,496
395,496
395,496
395,495
394,494
391,494
395,494
388,494
393,494
393,494
393,494
392,495
392,494
389,495
393,495
386,495
391,495
392,495
392,495
392,495
393,495
390,496
394,496
391,496
393,495
394,496
394,496
394,496
394,496
391,497
394,496
394,496
394,497
394,496
394,496
394,497
395,497
393,498
395,497
394,497
394,497
394,497
391,497
392,497
392,497
390,498
392,498
393,498
392,498
392,498
390,498
392,498
392,499
393,499
394,499
394,499
393,500
394,499
391,500
393,500
393,501
395,501
395,501
395,501
394,501
394,501
390,501
393,502
392,502
393,502
393,502
394,502
391,502
393,503
389,503
391,503
393,504
392,504
393,503
394,503
391,504
394,504
389,504
392,504
395,505
394,505
394,505
395,505
391,505
394,505
391,505
395,505
396,507
394,506
394,506
395,506
391,506
394,506
388,506
393,506
395,508
393,507
392,507
393,507
390,506
391,507
392,507
391,508
392,508
392,509
392,509
392,508
390,509
391,509
392,508
392,508
393,508
390,507
392,507
392,506
390,506
392,507
392,507
392,508
392,508
389,508
391,508
391,508
390,508
392,509
392,509
392,509
393,509
391,509
394,509
395,509
396,509
397,509
398,509
398,509
399,509
396,509
400,509
399,509
400,509
400,509
399,509
397,510
398,510
393,509
397,509
396,509
395,509
394,509
393,509
391,509
392,509
388,509
390,509
392,508
391,509
392,509
390,510
390,510
392,510
389,509
393,510
394,510
393,511
393,510
393,511
390,511
391,511
387,511
389,511
387,510
383,510
381,511
378,511
375,510
374,510
374,510
372,511
372,510
372,510
374,510
377,510
379,511
385,511
391,511
398,511
407,510
411,511
420,511
426,510
430,511
436,511
438,511
437,511
438,511
431,512
428,511
421,512
412,511
407,511
398,511
391,511
386,511
378,511
376,511
374,510
372,510
371,510
371,511
372,511
373,511
372,512
378,513
377,513
380,512
382,513
383,513
383,513
385,513
383,513
389,515
391,515
390,514
391,514
392,514
391,514
394,514
390,514
395,514
394,514
394,514
394,514
392,514
391,514
393,514
390,515
393,514
393,514
393,514
394,514
392,514
392,514
394,514
392,514
395,514
397,514
396,514
397,514
395,514
395,514
397,514
398,515
396,514
396,514
395,514
395,514
391,514
391,513
392,513
392,513
392,513
392,512
391,512
393,512
390,512
393,511
396,511
396,510
396,509
397,509
394,508
397,507
392,506
394,505
396,505
395,503
394,502
393,501
390,499
393,498
387,497
392,496
392,496
391,494
391,492
392,491
389,490
391,489
388,488
392,487
392,487
392,486
391,485
391,484
388,483
391,482
392,480
391,479
393,478
392,478
391,477
393,476
390,476
393,476
393,475
395,475
396,476
393,475
393,475
395,474
393,474
398,474
397,474
396,474
397,474
395,474
396,474
397,474
395,474
398,474
399,474
398,475
398,475
396,475
397,475
398,476
399,475
399,476
400,476
398,476
397,477
393,477
396,477
396,477
396,477
396,477
397,477
395,477
395,478
391,478
393,478
395,478
394,479
393,479
394,479
392,480
393,480
388,479
391,479
392,479
391,479
391,480
392,480
389,480
390,480
386,480
392,480
391,480
391,481
391,481
392,481
389,482
391,481
387,481
391,481
392,481
392,481
392,481
393,482
388,481
390,481
389,482
390,482
391,483
390,482
391,482
394,483
390,483
392,482
392,482
392,483
393,484
392,484
393,484
394,484
390,485
393,485
392,486
392,486
393,486
390,487
392,487
393,488
391,487
393,488
393,488
393,488
394,489
391,489
394,490
393,490
395,490
395,490
395,490
395,491
395,491
392,491
395,493
393,492
395,492
395,492
394,492
393,492
394,493
391,493
395,494
396,494
393,493
394,493
394,493
392,492
394,492
391,493
396,494
394,493
395,493
395,493
393,493
392,493
393,493
389,494
395,496
394,495
392,495
393,495
390,495
391,495
393,495
390,496
394,495
393,495
393,495
393,495
393,495
391,495
394,495
394,496
394,495
394,495
394,495
394,495
392,495
392,495
393,495
395,496
393,496
394,496
392,496
393,496
390,496
391,496
393,496
393,497
391,497
392,496
390,496
393,496
391,496
392,496
394,497
395,498
394,496
394,497
393,497
395,497
394,497
396,497
395,498
395,498
393,498
394,497
391,498
394,497
391,498
393,498
394,500
393,499
392,499
393,499
389,500
392,500
392,500
393,500
393,502
393,502
391,502
393,502
390,502
392,501
394,500
393,500
395,501
393,501
392,501
393,501
391,501
394,501
394,501
394,502
395,502
392,502
392,502
393,502
391,502
393,503
394,503
394,503
395,503
391,503
392,504
393,504
391,504
394,504
394,504
393,505
395,505
390,505
392,505
392,505
393,505
393,505
393,505
393,506
392,505
389,505
392,505
394,505
394,506
394,505
395,506
393,507
394,506
390,507
392,506
394,507
394,507
394,507
394,507
391,508
393,508
388,508
392,508
392,508
392,508
392,508
392,508
389,508
391,508
387,508
392,508
392,509
391,509
392,509
392,509
389,509
391,509
389,510
392,510
392,510
391,510
391,510
391,512
390,511
392,511
393,510
394,510
396,511
396,511
397,511
397,512
395,512
398,511
398,511
399,511
399,511
397,511
399,511
400,511
397,511
399,511
398,511
398,511
398,511
394,511
396,512
396,513
394,511
393,512
392,511
392,511
392,512
389,511
392,512
392,513
392,512
394,512
394,511
393,512
393,511
390,511
392,510
393,510
393,510
394,510
393,510
389,510
391,510
385,510
386,510
385,510
382,510
379,511
377,511
371,511
371,511
366,511
369,511
370,511
371,511
374,511
378,511
381,511
390,511
395,511
406,511
414,512
421,511
428,511
432,511
435,511
439,510
437,511
438,511
435,510
429,510
422,510
414,510
406,510
399,510
394,510
386,510
382,509
378,510
376,510
373,510
370,510
372,510
372,510
372,510
374,511
373,511
376,510
376,511
377,511
380,511
383,511
384,510
386,510
385,511
388,510
388,510
390,511
391,510
392,510
392,510
393,510
392,510
394,510
394,510
395,510
396,510
397,510
396,510
397,510
393,510
397,510
396,510
397,510
396,510
396,511
394,511
395,510
391,510
395,510
396,510
394,511
394,511
393,512
390,511
391,511
388,511
392,511
391,510
391,511
391,510
389,509
390,509
392,509
389,509
393,509
393,509
393,509
395,509
391,509
392,509
394,508
389,508
394,507
394,506
393,505
393,505
389,504
390,503
391,502
392,500
392,500
393,498
392,498
393,498
390,497
391,494
391,493
392,491
393,490
393,489
391,488
393,487
390,486
392,485
394,484
394,483
394,482
395,481
393,481
396,480
390,479
394,478
396,477
397,477
396,476
397,476
395,476
397,475
395,474
398,474
398,474
397,474
396,473
396,473
394,473
395,472
391,473
395,473
396,472
395,471
394,473
397,473
394,472
397,472
398,473
398,473
399,473
399,474
397,474
399,474
396,474
399,474
400,474
398,475
398,475
397,475
396,475
397,476
393,475
397,475
397,476
396,476
396,476
393,476
393,476
394,477
390,478
393,478
393,478
392,478
391,477
389,476
390,476
392,478
390,477
390,477
390,477
389,478
389,477
386,478
388,478
389,478
390,478
389,478
390,479
388,479
389,478
385,479
388,480
390,480
390,479
390,479
391,479
389,479
391,480
387,480
390,481
392,481
392,481
392,481
393,481
390,481
393,481
389,482
395,483
393,483
393,483
393,483
393,483
390,483
393,484
389,484
394,485
392,485
392,485
393,485
393,486
390,486
393,487
389,487
396,489
395,488
393,488
394,488
394,488
392,488
394,489
394,490
395,491
394,490
394,490
395,490
395,490
391,490
394,491
393,492
393,491
394,491
393,491
394,491
395,491
393,492
396,492
395,493
395,492
396,492
393,492
394,492
394,492
392,492
395,492
396,493
395,492
394,493
391,493
392,493
392,493
394,493
393,493
394,493
392,493
393,493
390,493
391,493
392,493
393,493
393,493
395,494
392,493
393,493
390,493
393,493
396,493
394,493
394,494
395,493
392,493
394,493
389,493
392,493
393,493
394,493
394,495
395,495
389,494
392,494
388,494
392,494
392,494
393,494
393,495
393,495
390,495
392,495
389,495
392,495
392,495
392,496
393,496
393,496
390,496
393,496
390,497
393,497
393,497
392,497
393,498
393,497
390,498
393,498
394,499
394,500
395,500
394,500
395,500
395,500
392,500
393,501
395,501
394,501
395,501
393,502
394,502
394,502
392,502
394,502
393,502
393,502
393,503
392,503
392,503
392,503
390,503
392,503
392,503
392,504
393,504
391,506
393,505
392,505
394,505
394,505
394,505
393,506
394,506
391,506
394,507
393,507
395,507
395,507
396,507
395,507
396,508
392,507
395,507
397,507
395,507
395,507
393,507
391,507
393,509
389,508
391,507
391,508
391,507
391,508
391,508
389,508
393,509
388,510
393,510
393,510
393,510
392,509
393,508
390,508
394,509
388,509
393,509
393,509
393,509
394,509
394,510
391,510
394,510
391,511
393,511
393,511
392,511
392,511
392,511
390,511
392,513
390,512
390,512
391,512
390,512
391,512
391,512
389,513
391,512
392,512
393,512
395,512
394,513
397,513
398,513
397,514
399,513
399,513
402,513
401,513
398,513
400,513
400,513
399,514
400,513
398,512
398,513
397,513
394,513
396,514
394,513
395,514
394,514
393,514
392,514
392,515
389,515
391,515
391,515
392,515
391,515
391,515
389,515
391,515
387,515
390,515
391,516
389,515
389,515
389,515
385,516
387,515
381,515
383,515
382,517
381,517
378,516
374,516
372,516
374,516
370,516
375,516
376,516
378,516
382,516
386,516
392,516
400,516
404,517
414,517
422,517
427,517
432,517
434,517
436,517
437,517
436,517
432,517
429,518
421,518
413,517
405,517
397,516
391,517
386,518
379,518
376,517
372,517
372,518
372,518
370,517
373,517
373,517
374,515
377,516
375,516
379,516
380,516
380,516
384,516
385,516
386,517
388,516
385,517
390,517
390,518
393,517
392,517
393,517
393,518
394,518
390,518
395,518
393,518
395,517
395,518
396,518
395,518
396,518
392,518
396,518
396,518
395,517
395,517
394,517
393,517
394,517
391,517
395,518
395,516
396,517
396,517
395,517
393,517
396,516
392,518
396,518
395,517
394,517
394,517
391,517
390,517
391,517
388,516
391,515
391,516
390,516
390,515
388,515
389,514
391,513
391,512
392,511
392,510
392,509
393,508
390,507
391,506
392,505
394,504
394,502
394,501
393,500
394,499
390,498
392,497
394,495
394,494
394,492
394,491
393,490
394,489
390,488
392,487
394,486
394,484
394,484
394,483
392,483
394,482
391,481
393,479
394,479
394,478
394,477
396,477
392,476
395,475
392,473
396,473
397,473
397,473
396,473
397,474
393,474
398,474
395,474
397,474
398,474
398,474
396,474
398,474
395,474
399,475
399,475
398,475
399,475
398,475
397,475
398,475
395,476
398,476
398,476
397,476
396,476
394,476
393,476
394,476
391,478
395,479
394,479
393,478
392,477
390,477
389,477
391,478
389,479
391,478
391,478
392,479
392,479
390,479
391,479
392,479
393,480
392,479
394,479
391,480
392,480
389,480
390,480
390,480
391,481
390,481
391,480
389,480
390,480
387,480
388,481
392,482
390,481
390,482
390,482
387,481
390,482
386,483
389,483
391,483
391,483
392,483
393,483
390,484
393,484
389,484
393,485
394,486
393,485
393,486
393,486
391,486
393,486
389,487
394,487
396,489
395,489
394,490
394,490
390,490
393,490
388,490
393,489
394,490
392,490
393,490
392,490
391,491
393,491
393,492
394,492
395,493
394,493
394,493
395,493
392,494
394,494
394,494
395,495
394,496
393,495
394,496
393,496
391,496
394,496
393,496
394,497
394,497
392,497
394,497
394,498
392,498
395,498
395,498
395,498
394,499
390,499
392,499
393,499
392,499
393,499
394,499
395,500
394,500
391,499
392,499
392,499
393,499
393,500
393,500
394,501
393,502
390,500
392,500
393,500
394,500
393,500
394,501
392,501
393,501
390,501
392,501
394,501
394,502
394,502
395,502
391,502
393,502
389,502
392,502
393,503
393,503
393,503
393,504
390,504
392,504
388,504
393,504
393,505
393,505
393,505
395,506
390,506
393,506
389,507
393,506
393,507
393,507
393,507
396,508
391,508
394,508
394,509
395,509
396,509
395,509
395,510
396,510
393,510
394,510
395,511
394,511
394,512
393,512
393,513
394,513
389,513
392,513
392,513
392,513
393,513
390,513
393,515
392,514
391,514
393,514
393,514
392,514
393,515
391,515
394,516
393,515
393,516
393,516
394,516
394,516
395,516
391,516
395,516
394,517
396,517
396,516
396,517
395,517
395,517
390,517
393,517
391,517
392,517
392,518
391,518
390,518
392,519
388,520
393,520
393,520
392,520
392,520
392,520
390,520
393,520
389,521
392,520
392,520
392,521
392,521
390,521
389,521
391,521
389,523
392,522
392,521
393,521
393,521
390,521
392,521
393,521
393,523
394,523
394,522
393,522
394,522
391,523
391,523
393,523
394,523
393,523
394,523
395,522
396,523
394,523
396,523
399,524
399,523
399,523
400,523
398,522
399,523
397,523
397,523
399,524
398,523
397,522
397,523
394,523
396,523
392,523
394,523
395,524
394,524
392,524
393,524
390,524
392,523
389,522
391,522
392,522
391,522
391,522
391,522
387,522
391,522
390,522
389,522
389,524
386,523
382,522
381,522
376,522
377,523
377,522
373,523
372,523
371,522
370,522
374,522
374,522
379,522
387,522
392,523
398,522
404,522
412,522
420,522
424,522
434,522
438,522
439,523
440,522
436,522
434,521
429,522
420,521
416,521
408,521
401,523
392,521
383,522
379,522
376,522
374,522
372,522
371,522
370,522
371,522
368,522
371,521
374,521
376,521
377,521
379,522
380,521
383,521
381,521
385,521
389,521
389,521
391,521
393,522
391,522
393,521
390,520
393,520
395,520
395,520
395,520
395,521
392,521
394,520
390,520
394,520
395,520
394,520
395,520
396,520
392,520
395,520
391,520
395,520
395,520
394,520
394,520
395,520
391,520
393,519
393,520
394,520
393,519
393,519
393,520
396,521
392,520
394,519
394,519
394,518
396,519
393,519
394,519
394,518
392,518
394,517
393,516
394,515
394,514
391,513
393,511
392,511
390,509
392,509
392,508
391,507
391,506
389,505
391,504
391,503
393,501
392,501
391,500
392,498
393,497
389,495
394,494
393,493
394,491
394,490
395,489
393,487
395,486
391,485
395,484
396,483
395,481
395,481
394,480
392,478
394,478
390,477
394,476
394,475
396,475
396,474
395,473
395,472
397,472
393,471
398,471
398,470
397,469
398,469
395,469
395,468
397,468
395,468
398,469
398,468
397,467
398,468
396,467
397,467
399,467
399,468
399,467
400,468
398,468
398,468
394,468
394,468
395,468
395,469
394,469
394,469
391,469
394,469
390,470
392,470
394,470
393,470
393,470
394,470
390,470
393,470
389,470
391,470
393,471
393,471
392,471
392,471
389,471
392,471
389,471
393,471
392,471
392,472
391,472
392,472
388,472
390,473
386,472
390,473
390,473
389,473
387,473
389,474
386,473
389,473
390,474
391,474
390,474
391,475
390,476
391,477
390,477
392,476
393,477
393,478
393,477
389,477
390,477
391,478
389,479
391,479
392,480
391,482
393,484
389,484
391,484
391,485
390,484
393,484
394,484
393,486
394,486
391,486
393,487
394,488
395,488
395,488
396,489
395,491
396,492
392,491
393,491
395,491
394,491
395,492
396,492
393,493
394,493
390,493
393,494
395,494
394,494
394,495
394,495
392,496
393,495
389,496
393,495
394,496
394,497
395,496
397,497
393,497
396,498
392,497
396,497
396,498
395,498
395,499
395,500
391,499
393,499
391,499
393,500
393,500
392,500
392,500
393,501
391,501
391,501
392,500
392,500
393,500
392,501
392,501
393,502
390,503
393,503
392,503
393,502
393,502
390,501
393,501
393,502
391,502
394,502
394,502
394,502
395,503
393,503
396,504
395,504
397,504
397,504
397,505
395,505
395,505
391,505
394,506
393,506
393,506
392,506
393,507
391,507
392,507
388,508
391,509
392,508
391,508
391,508
392,508
390,509
394,509
390,510
394,510
394,510
395,510
395,511
394,511
393,511
395,512
391,512
397,514
394,513
394,512
394,512
392,513
392,513
394,513
391,514
396,515
396,515
394,514
394,514
392,514
392,514
393,515
393,516
393,516
392,515
392,516
392,516
389,516
390,516
391,516
392,517
392,516
392,516
391,517
393,517
389,517
392,517
395,517
395,518
394,518
395,518
392,518
394,518
390,518
392,518
393,519
395,519
393,519
393,520
390,520
393,520
388,520
393,520
392,521
394,521
393,521
393,521
390,521
393,521
387,522
392,522
392,522
392,523
391,522
392,522
389,522
392,522
390,522
392,522
392,523
392,523
391,523
392,523
391,523
394,523
396,523
396,523
399,525
398,524
398,523
400,523
398,524
402,524
402,524
401,524
402,524
397,524
398,524
397,524
394,524
397,524
396,524
394,524
396,524
391,524
392,524
393,524
393,524
393,524
393,524
392,524
392,524
388,524
389,525
390,524
390,525
390,525
391,525
390,526
389,524
385,525
387,525
388,525
387,525
386,525
385,525
380,526
381,527
373,526
374,525
374,525
373,525
372,525
373,525
373,525
378,525
378,525
387,525
395,525
402,525
410,525
417,525
423,525
430,525
430,525
439,525
440,525
439,525
437,525
432,525
424,526
418,526
407,525
403,525
396,525
388,525
382,525
379,526
373,525
372,525
372,525
371,524
372,524
372,524
373,525
375,525
374,524
376,524
379,524
380,524
382,524
381,524
384,524
386,526
385,526
388,526
389,526
390,526
391,525
389,524
393,524
395,525
393,524
395,524
395,524
395,524
396,524
393,524
396,524
396,525
396,524
396,524
396,524
396,524
396,524
393,525
396,525
397,525
396,525
396,525
395,525
393,525
395,525
391,525
394,525
395,525
393,525
393,524
393,524
391,524
392,524
388,524
393,524
391,523
391,523
392,523
390,522
391,522
392,522
389,520
394,521
393,519
393,518
395,517
393,516
393,516
395,514
391,514
396,513
395,512
394,511
393,509
390,507
391,507
392,506
392,505
393,504
392,502
391,500
393,499
389,497
391,496
391,495
393,494
393,492
393,491
391,489
393,488
389,487
392,486
394,484
395,484
394,482
395,481
392,480
395,479
392,478
393,477
396,476
397,476
395,475
395,474
392,474
395,473
391,472
396,472
396,472
396,471
396,471
397,471
394,470
397,470
393,470
398,470
399,470
400,471
400,470
399,469
397,469
400,470
400,470
400,470
400,470
399,470
399,470
397,469
395,468
395,468
396,468
395,468
395,468
392,468
393,468
392,469
390,469
392,469
391,470
391,470
392,470
389,470
391,471
391,471
390,471
391,471
391,471
390,471
391,471
388,472
391,472
391,472
391,472
391,473
391,473
390,473
392,473
388,473
390,473
392,473
391,474
391,474
392,474
389,474
390,474
386,474
390,474
390,475
391,475
390,475
391,475
388,475
391,476
387,476
391,476
392,476
392,477
392,477
392,477
391,478
394,478
390,479
394,479
394,479
393,479
393,480
393,481
392,482
394,482
392,482
393,483
393,483
393,483
393,484
392,484
391,485
392,485
393,486
393,486
394,486
394,486
394,487
394,487
394,487
397,488
396,488
397,488
397,488
394,489
397,489
395,489
394,489
395,490
394,490
394,490
393,491
389,491
392,491
391,492
392,492
391,492
392,492
391,492
392,492
388,492
393,492
392,493
393,493
394,493
394,494
393,494
395,494
391,494
394,494
395,494
395,494
395,494
395,494
392,493
393,493
390,493
392,494
395,496
393,495
393,495
392,495
392,495
393,496
390,496
395,497
394,497
393,497
393,497
390,497
391,497
392,498
390,498
393,499
394,499
394,498
395,499
392,499
393,499
394,499
395,500
396,500
395,500
394,501
394,501
390,501
392,501
392,501
392,502
393,503
393,505
391,503
392,503
389,502
392,503
395,503
394,504
396,505
395,505
392,505
394,505
390,505
393,505
394,506
394,507
394,507
393,507
390,507
393,508
388,508
394,508
393,508
392,509
393,511
392,509
390,510
393,509
389,510
393,510
394,510
393,511
393,511
393,511
391,511
393,511
394,512
394,512
395,512
395,514
394,514
394,514
392,514
394,514
394,513
394,513
395,513
395,513
395,513
395,513
392,514
395,514
394,514
393,514
393,515
391,515
392,515
391,515
389,516
391,516
391,516
390,516
391,517
388,517
391,517
391,517
393,517
392,517
392,517
392,518
393,519
389,518
392,518
392,518
392,518
393,517
393,519
392,519
394,521
390,520
392,519
394,519
393,520
394,520
394,520
393,520
397,520
392,520
396,520
397,520
398,520
398,520
398,520
397,521
400,522
397,521
400,521
399,521
399,520
399,521
396,521
396,521
397,521
394,521
396,521
396,520
394,521
394,521
390,521
391,521
391,521
390,521
391,521
391,520
390,521
390,521
387,521
389,522
389,521
390,521
390,521
390,521
388,521
388,521
384,521
386,522
386,521
383,521
381,521
379,522
374,521
375,521
370,521
374,523
373,522
376,522
379,522
384,522
385,522
395,522
398,523
409,522
416,522
424,522
430,522
435,522
435,522
440,523
434,523
436,523
431,523
425,523
417,523
409,523
398,523
393,523
384,524
380,523
376,523
372,523
370,523
369,523
367,523
370,523
373,524
373,524
376,523
377,524
379,524
381,524
381,524
385,523
386,524
388,524
390,524
388,524
391,524
392,523
390,524
393,524
393,524
392,523
394,524
391,525
393,524
393,525
394,525
394,525
395,526
393,525
394,525
390,525
393,525
393,525
393,525
394,525
394,525
394,525
394,525
391,525
395,525
396,525
396,525
397,526
395,526
393,526
396,526
392,526
394,526
395,526
394,526
395,527
392,526
391,526
393,526
389,526
393,525
393,525
393,525
394,524
392,523
390,523
392,522
388,521
392,520
392,520
392,519
393,518
391,516
390,515
392,514
390,513
392,511
392,510
391,510
391,508
390,506
390,505
391,504
392,502
392,500
393,499
393,499
394,498
393,496
393,495
393,494
395,492
394,489
395,487
394,486
394,484
393,483
393,482
395,481
395,479
395,479
396,477
394,477
395,475
393,475
392,474
396,473
396,472
395,471
396,471
393,470
396,470
394,469
397,468
396,468
396,467
395,467
396,468
393,467
396,466
395,466
398,466
399,466
399,465
397,466
400,466
396,465
400,466
401,465
399,466
399,465
398,466
395,466
397,467
392,466
394,466
395,466
394,466
394,467
392,467
392,467
394,469
389,468
392,467
392,467
390,468
390,468
388,468
388,469
389,469
386,469
389,469
390,469
389,470
390,470
387,470
389,471
389,471
391,471
391,471
391,471
391,471
391,471
388,472
390,473
391,473
390,472
391,473
391,472
389,473
391,473
387,473
391,474
392,474
392,474
392,474
393,474
391,475
394,475
390,476
394,476
395,477
394,476
395,477
394,478
391,477
393,479
389,480
394,481
393,480
392,480
393,481
392,482
390,482
392,482
388,483
393,483
393,483
393,483
392,483
393,483
390,483
393,484
392,484
393,484
393,485
392,485
392,486
393,487
391,487
393,488
394,489
395,489
395,490
393,490
396,490
396,490
395,491
396,491
395,491
395,492
397,492
392,492
394,492
394,493
391,493
393,493
394,493
393,493
394,493
392,493
395,494
393,493
395,493
394,494
393,494
392,494
393,494
389,494
392,494
392,495
393,495
393,495
393,495
391,496
392,495
389,496
392,496
394,496
393,496
395,496
394,495
391,497
394,497
390,497
393,498
394,498
393,498
394,498
392,498
392,498
394,499
391,499
395,499
395,499
394,499
394,499
393,500
392,500
393,500
390,500
393,500
394,501
392,501
393,501
389,501
390,502
391,502
393,502
392,503
393,503
392,503
393,504
390,504
392,504
392,504
394,505
394,505
395,506
393,506
395,507
391,507
393,507
396,507
395,507
395,507
396,506
393,507
394,507
390,508
392,508
393,508
393,510
393,510
393,510
391,513
392,512
388,512
394,513
393,513
393,514
393,514
393,514
390,515
392,515
387,515
392,516
393,516
392,516
392,516
393,517
391,517
393,518
391,518
394,518
394,518
393,518
394,519
393,520
391,520
393,520
393,520
393,520
393,520
393,520
392,521
393,521
390,522
394,522
392,522
392,522
393,523
390,523
392,523
393,524
389,524
392,524
391,524
392,524
392,524
390,524
391,525
393,527
390,527
392,525
391,525
392,526
394,525
392,525
396,526
398,528
399,526
400,526
400,527
401,527
401,527
398,527
401,527
399,528
400,527
400,528
399,528
396,528
397,528
393,528
396,529
396,528
394,529
394,528
392,529
389,529
391,529
386,529
390,531
390,531
390,531
390,531
389,531
389,530
391,529
388,529
394,529
392,529
392,529
392,529
388,529
387,530
386,530
381,530
383,530
381,530
378,530
377,530
372,530
372,530
373,530
375,531
377,530
378,530
381,530
386,530
389,529
397,530
405,530
413,531
421,531
426,530
430,530
435,530
434,530
437,530
438,530
434,531
427,530
421,530
411,530
406,530
395,530
390,530
385,530
381,530
376,530
374,530
370,530
371,530
366,530
372,530
373,530
375,531
375,530
377,529
375,529
380,529
376,529
383,529
384,530
385,530
386,529
388,529
385,530
389,529
383,529
391,529
391,530
391,529
391,529
393,529
391,529
394,529
395,529
396,529
398,530
396,529
396,529
397,529
394,529
397,529
399,529
398,529
399,531
396,530
396,529
396,529
393,529
396,529
395,529
394,529
395,530
391,529
392,529
392,529
391,529
393,529
393,529
392,529
393,529
390,528
392,528
393,528
394,528
394,527
394,527
393,527
393,526
390,525
392,524
391,523
393,522
392,521
393,520
390,520
392,518
387,517
391,515
393,514
392,513
393,511
394,510
392,508
393,507
389,505
392,503
394,502
394,500
394,499
393,497
391,496
393,494
389,492
393,491
393,488
394,488
395,486
395,484
393,485
395,484
392,483
395,479
396,478
396,477
396,475
397,475
394,473
396,472
396,471
396,470
396,470
396,469
396,468
397,469
395,468
397,467
397,466
397,465
398,465
396,464
397,464
399,464
396,463
399,463
399,463
399,462
400,462
398,462
399,462
400,463
396,463
398,462
398,462
397,462
397,462
393,462
395,463
393,463
394,463
392,463
392,463
392,462
392,463
389,463
393,463
391,463
392,463
392,463
392,463
390,463
391,463
387,463
391,464
392,464
390,464
390,463
390,464
388,464
390,464
387,465
392,466
392,467
391,466
391,466
390,466
389,465
390,465
388,465
393,465
391,465
391,465
392,466
390,466
391,466
391,466
389,467
393,467
392,467
391,467
391,468
389,468
390,469
391,469
393,470
392,470
393,470
392,471
393,471
390,472
391,472
392,472
393,474
393,474
394,474
391,474
394,475
391,476
393,476
394,476
395,478
395,478
395,478
392,478
394,479
390,479
394,480
394,480
395,482
392,481
392,482
389,481
392,482
389,482
393,483
394,483
395,484
394,484
395,484
392,484
394,485
392,485
394,485
395,486
394,486
394,486
395,486
393,486
395,486
395,487
395,487
395,488
394,488
393,487
394,488
391,488
394,488
393,488
393,488
394,489
391,489
393,489
394,489
392,489
394,489
394,489
393,490
395,490
391,490
392,490
392,490
392,490
393,491
393,490
392,490
394,492
390,491
393,491
392,492
393,492
393,492
393,492
393,493
395,495
390,496
394,495
394,496
394,495
394,495
394,495
391,495
393,495
390,495
393,494
394,494
394,494
395,495
394,495
393,495
394,496
390,496
394,497
393,497
392,498
392,498
391,499
390,499
392,499
388,500
392,500
393,500
392,500
393,500
390,501
391,501
393,501
394,502
395,503
395,503
395,502
395,503
392,503
393,503
394,504
394,504
395,504
394,505
392,505
393,505
389,505
391,506
393,506
393,506
392,506
394,506
392,506
394,507
390,508
393,509
394,508
394,508
394,509
394,509
391,510
393,510
391,511
395,511
393,511
393,511
393,511
393,511
389,511
392,512
389,511
393,512
392,512
393,512
391,512
393,513
389,513
392,512
392,513
392,513
392,514
392,514
391,514
393,514
389,514
392,515
394,515
392,515
392,515
391,515
390,515
391,515
388,515
392,516
392,516
392,517
393,517
390,517
392,517
393,517
392,517
396,518
398,517
398,517
399,517
397,518
399,516
400,517
401,517
403,519
402,519
400,518
400,518
396,519
396,520
396,520
396,520
396,521
394,521
392,521
392,521
389,522
391,522
392,522
391,523
391,522
391,523
388,522
391,523
387,523
390,523
392,523
392,524
393,523
392,523
388,523
391,523
385,524
389,523
387,524
384,524
382,524
380,524
376,524
376,524
371,524
374,524
374,524
374,524
375,524
378,524
380,524
387,524
393,524
400,524
407,525
415,525
421,525
428,524
430,524
436,524
438,524
439,524
438,524
434,526
428,525
420,524
411,524
406,524
398,524
390,525
385,524
378,526
376,526
372,525
370,524
371,524
371,524
371,524
372,525
370,524
375,524
376,524
379,524
380,524
381,524
383,524
385,524
383,524
388,524
389,524
391,523
392,524
392,524
391,524
394,525
390,525
393,525
394,525
393,525
394,523
393,523
392,523
396,523
392,523
395,523
397,523
397,523
397,523
396,523
395,524
397,524
393,524
396,524
397,524
395,524
395,524
391,524
391,525
394,525
389,525
392,525
393,524
393,524
393,524
392,524
392,525
393,524
394,524
394,524
394,523
393,523
393,523
391,523
392,523
391,522
391,521
391,521
392,519
389,519
391,518
390,517
391,516
393,515
393,513
393,512
394,511
391,509
394,508
393,507
394,506
395,504
394,502
394,500
394,498
392,497
394,495
392,494
393,493
393,491
392,489
392,488
394,486
390,485
394,483
392,482
394,481
395,479
395,477
393,476
395,475
392,474
395,472
398,473
396,471
395,470
395,469
394,468
396,467
393,467
396,465
398,466
397,465
398,464
396,464
396,464
398,463
395,463
398,462
399,462
398,462
398,462
396,462
397,462
398,461
395,462
399,462
399,462
397,462
398,461
395,461
396,462
397,461
397,462
396,463
395,462
394,462
394,462
389,463
392,463
392,463
392,463
393,464
392,464
390,464
393,464
390,464
392,464
394,465
393,465
393,466
392,466
389,465
391,466
386,466
388,466
390,466
389,466
390,468
388,467
386,467
388,467
384,467
389,468
389,468
388,469
389,469
389,468
386,470
389,470
386,471
390,471
391,471
391,472
391,471
391,472
389,472
392,473
392,473
393,473
394,474
394,475
394,475
394,475
392,475
393,476
394,476
394,477
394,477
393,478
394,478
393,479
392,479
395,480
394,480
394,481
395,481
393,482
393,483
393,483
393,483
393,484
393,484
393,485
394,486
391,486
393,486
393,486
393,487
394,487
394,487
393,488
394,488
392,490
393,488
394,488
395,489
394,489
393,489
392,490
394,491
390,491
392,491
393,491
393,491
393,491
393,492
390,492
393,494
390,495
395,495
394,495
395,495
394,493
393,493
392,493
395,494
390,493
393,494
394,494
393,494
394,494
394,495
392,495
395,495
392,495
394,495
394,496
394,496
394,496
395,496
393,497
394,497
395,497
395,497
396,498
395,498
394,498
393,498
391,499
393,499
392,499
391,499
392,500
389,500
391,500
391,501
390,502
392,502
391,501
392,501
393,501
390,502
393,502
392,502
395,504
394,504
393,504
393,504
394,505
392,505
395,505
394,506
396,506
396,507
395,507
394,507
395,508
391,508
394,509
394,509
393,510
393,510
392,511
391,511
392,511
388,512
391,512
392,513
391,513
392,513
391,514
390,514
393,514
389,515
394,515
393,517
393,517
392,516
391,517
390,517
392,517
390,517
394,518
394,518
393,518
394,519
391,519
392,519
394,519
394,520
394,520
396,521
394,521
394,520
390,521
392,521
392,521
392,521
392,522
394,524
392,524
392,524
389,524
390,524
393,524
392,524
392,523
391,523
389,524
391,524
387,523
390,523
391,523
392,523
392,524
392,524
390,525
393,525
389,525
395,526
395,526
396,526
397,527
398,527
395,527
399,527
395,527
400,527
402,528
401,528
402,528
401,528
398,528
401,528
398,528
399,528
399,528
397,528
395,528
395,529
391,529
393,528
392,529
392,529
392,529
391,529
390,529
390,529
388,529
391,530
391,529
390,529
391,529
388,530
390,530
390,530
387,529
390,529
390,530
388,530
389,530
383,530
383,530
382,530
379,530
379,530
377,529
375,530
375,530
371,530
373,530
376,530
379,530
383,530
388,530
393,531
400,530
405,530
414,530
423,531
429,530
434,530
440,531
439,531
440,531
433,531
430,531
426,531
419,532
410,531
403,532
392,531
388,532
379,532
377,532
374,532
372,533
372,533
371,533
370,533
373,533
371,533
377,533
379,533
380,533
382,534
383,533
381,533
386,533
384,534
388,533
389,533
390,534
390,535
392,534
388,534
392,535
391,535
391,536
392,536
392,536
392,536
393,536
391,537
394,537
393,537
394,537
395,537
393,538
395,538
396,538
393,538
397,538
396,538
396,538
397,538
394,538
396,539
395,539
393,540
395,539
394,539
394,539
394,539
390,539
393,539
392,539
393,540
392,539
392,539
391,539
392,539
389,539
392,538
392,538
394,539
393,538
392,537
391,536
393,535
389,534
392,533
394,532
394,533
393,531
394,529
391,528
393,526
389,524
392,524
393,522
393,520
393,519
393,518
390,516
393,514
389,513
393,511
393,510
395,509
394,508
392,504
391,503
394,501
390,499
395,498
395,497
394,495
395,494
395,492
393,491
395,490
393,488
395,487
397,487
396,486
396,485
395,484
394,483
396,481
396,480
396,478
398,478
397,477
397,477
399,476
397,475
397,475
399,475
399,474
401,475
397,474
399,473
399,473
397,473
399,472
398,472
397,473
397,473
394,472
396,472
395,472
394,472
396,472
395,473
395,474
395,473
392,473
395,473
393,473
395,473
394,473
394,473
394,474
393,474
389,474
392,474
390,474
392,474
391,474
390,474
390,475
390,475
387,475
390,475
392,475
391,475
390,475
390,475
390,477
391,476
386,476
390,476
391,476
390,476
390,476
389,477
388,477
390,477
387,478
391,478
391,478
392,478
392,478
389,479
391,479
391,479
388,480
391,479
392,480
391,480
392,481
391,482
391,481
393,482
393,482
395,482
394,483
394,483
394,484
392,486
392,486
393,486
394,486
394,486
394,487
393,487
393,488
391,489
392,489
393,489
394,490
394,490
395,490
392,491
394,491
390,491
392,491
394,492
394,492
394,493
394,493
392,493
395,494
390,494
394,494
395,494
394,494
395,495
395,495
391,495
395,496
389,496
394,496
394,496
393,496
394,496
394,496
391,496
395,498
391,497
394,496
394,497
394,496
393,497
393,497
390,496
392,497
393,497
393,497
393,497
393,497
394,497
394,497
391,498
395,498
393,498
393,498
394,499
391,499
393,499
392,499
391,500
393,500
392,499
393,499
393,499
390,499
393,500
393,500
394,501
394,500
394,500
394,500
395,500
392,500
394,501
393,501
395,501
393,501
392,501
392,502
393,502
389,502
392,502
393,502
393,504
392,504
393,504
391,504
393,505
389,505
393,505
394,506
395,507
394,507
394,506
391,506
393,507
390,507
394,507
395,508
395,508
395,508
395,508
393,508
395,509
390,508
394,508
395,510
394,510
394,510
395,510
392,510
393,510
390,511
392,511
393,513
391,514
391,514
391,514
388,514
389,513
391,513
391,513
393,513
391,513
392,513
393,513
392,514
395,514
395,514
395,514
397,515
393,515
395,515
394,515
392,515
393,516
394,516
393,516
393,516
391,516
394,516
392,517
393,517
394,517
394,517
393,518
394,518
390,518
393,518
392,518
392,518
391,518
391,518
390,519
390,519
385,519
389,519
390,519
390,519
390,519
391,519
391,521
393,520
391,520
395,520
397,520
397,521
399,521
399,521
398,521
400,522
397,522
400,522
401,522
401,522
401,522
399,523
398,523
399,523
395,523
398,523
397,523
395,523
395,523
391,524
391,523
392,523
387,523
391,523
392,523
391,523
391,523
388,524
389,523
390,523
391,523
391,523
391,523
390,523
391,523
387,525
388,524
387,524
388,523
387,523
385,523
380,523
380,523
375,524
374,523
375,524
373,523
373,523
374,523
373,523
378,524
380,525
387,525
395,525
402,524
409,523
416,524
420,523
429,523
429,523
437,522
438,522
437,521
435,521
430,521
421,521
417,521
405,522
402,522
394,522
388,522
382,523
378,523
372,523
373,523
371,523
372,523
373,522
373,522
373,522
376,522
374,521
379,522
380,522
383,523
384,522
384,522
386,522
387,522
386,522
391,522
391,522
390,522
392,522
390,522
392,522
392,522
390,522
394,522
393,522
393,522
393,522
391,522
393,522
393,522
395,523
394,522
395,522
394,522
395,522
392,523
395,523
395,523
397,523
397,523
398,523
395,524
397,523
392,523
395,523
397,523
396,524
395,523
397,523
394,523
396,523
391,523
394,523
395,522
394,522
393,522
392,521
390,521
391,521
387,520
391,520
390,519
391,519
391,517
390,517
388,516
390,515
387,514
390,512
392,512
391,511
391,509
390,507
389,506
391,505
392,504
392,502
393,501
393,499
394,497
394,496
393,493
395,492
396,491
394,488
398,487
395,485
396,484
395,483
395,481
397,481
396,480
395,479
396,477
393,477
394,476
395,474
393,473
395,473
395,472
395,471
396,470
393,470
396,469
395,468
397,468
396,467
395,466
395,467
396,467
392,467
395,466
394,465
395,464
396,464
396,464
396,465
397,464
394,464
398,464
399,464
398,464
398,464
398,464
396,466
398,466
393,466
397,465
398,466
398,466
397,466
396,466
396,467
396,467
393,467
396,467
396,468
395,467
395,468
393,468
393,469
393,469
389,469
392,469
392,470
390,470
390,470
387,470
387,471
388,471
387,471
388,471
388,472
387,472
387,472
385,473
386,473
387,473
388,473
389,473
389,473
388,474
389,474
387,476
389,476
389,476
390,476
391,475
393,476
391,476
394,476
391,478
393,479
395,479
395,480
395,480
395,479
391,479
394,480
392,481
393,481
395,481
395,482
395,482
395,483
392,483
394,484
390,485
395,485
394,486
394,486
393,487
393,488
390,488
393,489
388,489
393,489
394,490
393,490
393,491
394,492
391,493
394,493
392,493
394,494
394,494
394,495
394,495
394,496
392,496
397,497
395,497
395,497
395,497
394,498
395,498
394,498
392,499
395,499
393,499
393,499
393,500
391,500
393,500
393,500
391,501
395,503
394,502
394,501
395,501
393,502
395,502
395,502
394,503
395,504
393,503
393,503
393,503
388,503
390,503
389,503
389,504
388,504
387,504
386,503
387,504
384,504
389,504
389,504
393,504
393,504
394,504
392,504
395,504
392,504
395,504
396,504
397,504
395,504
396,505
393,505
395,505
391,504
392,505
393,504
393,504
392,505
391,505
389,505
392,505
389,505
393,505
394,505
394,504
394,504
395,504
392,504
394,504
390,504
393,504
393,504
391,503
390,503
388,503
384,502
385,502
384,501
384,501
385,501
385,501
384,499
386,499
385,497
388,497
390,496
390,495
391,494
387,493
386,492
383,490
378,489
376,488
370,486
364,485
359,483
349,481
346,479
339,477
332,475
329,472
325,470
321,469
320,466
316,463
318,460
319,456
323,453
330,449
337,445
345,442
358,437
368,432
385,426
396,421
416,415
432,409
450,403
466,397
482,389
493,381
510,371
519,361
533,349
541,334
548,318
552,301
554,280
551,257
552,233
548,210
541,189
533,168
522,149
510,107
496,86
479,82
467,81
453,80
437,79
421,78
405,76
387,74
373,74
355,73
345,72
333,71
320,70
311,69
301,70
295,69
291,69
285,68
283,68
280,68
273,68
266,67
256,68
246,65
234,65
218,65
196,63
166,61
127,60
81,59
62,59
49,59
6,57
0,57
0,56
0,55
0,55
0,56
0,57
0,56
0,56
0,56
0,56
0,56
0,56
0,56
0,56
0,56
0,56
0,56
0,57
139,68
362,80
512,82
460,84
535,95
652,108
765,111
795,111
794,111
795,111
796,112
792,111
794,111
794,112
794,111
795,111
793,112
795,105
594,82
397,69
326,71
324,67
224,62
95,56
0,56
0,56
0,56
0,55
0,56
0,55
0,56
0,57
0,57
0,55
0,56
0,56
0,56
0,55
0,55
0,56
0,55
0,55
0,57
0,56
0,56
0,56
0,55
97,65
313,78
483,82
462,82
524,95
645,107
761,111
792,111
796,111
789,112
795,113
797,113
794,112
796,111
797,111
793,112
796,111
791,112
799,110
796,112
796,112
796,111
796,112
791,112
796,112
788,111
798,109
796,111
796,112
796,111
796,112
791,111
796,112
796,112
796,112
796,112
795,111
795,111
795,113
791,111
750,109
717,106
689,104
655,100
613,93
568,87
522,85
476,82
444,77
415,77
396,74
379,75
365,73
357,74
349,71
341,73
338,72
334,71
331,72
331,72
328,70
331,72
333,72
335,71
338,72
341,72
344,71
347,74
348,73
354,75
356,75
361,74
364,73
367,75
369,76
372,75
371,76
377,78
378,85
382,98
384,128
385,149
385,153
388,162
386,168
391,176
393,181
393,188
394,196
394,203
392,209
395,216
392,222
395,228
396,234
396,242
396,247
395,252
394,259
396,266
392,271
396,276
396,282
396,288
396,294
394,299
393,306
395,312
391,317
395,322
395,327
393,332
394,336
391,341
391,347
393,354
392,357
393,363
393,368
392,373
393,377
389,383
391,387
392,391
393,395
393,401
393,406
392,408
393,412
388,417
393,422
400,428
413,430
426,433
440,437
451,444
470,448
484,450
500,453
514,459
521,461
532,464
543,468
552,473
570,478
587,482
612,487
640,489
664,492
689,495
707,500
717,503
728,506
725,508
727,513
720,516
712,519
703,520
694,524
680,529
672,533
657,537
649,539
635,542
618,547
601,552
583,557
562,558
545,559
524,564
511,566
496,568
480,571
466,575
451,580
438,584
427,584
418,584
410,588
403,589
395,592
386,595
376,598
363,600
351,602
337,605
320,608
302,609
281,612
262,615
240,619
218,620
200,621
179,623
161,625
147,628
132,630
126,631
117,633
118,635
120,639
123,641
130,642
138,644
143,646
155,648
162,650
178,652
195,654
208,653
222,657
238,659
251,660
270,664
279,665
298,665
313,668
328,668
341,670
352,674
358,675
374,676
383,678
401,678
409,680
419,683
433,682
446,685
453,686
462,692
460,693
472,693
484,695
492,694
495,697
501,697
511,697
530,696
540,695
544,697
548,699
575,702
623,704
661,704
684,705
707,709
724,708
756,708
786,711
793,712
794,714
791,715
791,716
794,715
794,715
794,718
796,720
792,720
795,721
793,722
793,726
796,725
795,725
795,724
796,728
791,728
795,730
793,729
795,730
795,730
795,732
794,732
795,733
790,733
795,735
793,736
796,736
795,737
795,737
794,738
795,740
789,740
795,740
795,742
797,745
796,745
793,744
791,743
795,743
789,744
794,745
795,748
797,749
786,747
756,747
738,749
735,749
718,750
696,749
660,752
615,752
561,752
500,752
444,752
395,753
345,755
311,755
282,756
257,755
236,756
218,757
200,757
180,757
158,757
142,757
121,759
103,760
91,759
80,759
77,760
79,760
66,761
33,761
0,761
0,762
0,762
0,763
0,762
0,762
0,762
0,764
0,764
0,763
0,763
0,763
0,764
0,764
0,764
0,767
0,766
0,765
0,765
0,765
0,764
0,764
0,765
0,768
0,765
0,765
0,765
0,766
0,766
0,765
0,765
0,766
0,766
0,766
0,765
0,765
0,765
37,766
92,766
101,766
112,765
148,765
187,766
172,766
139,766
129,765
165,767
208,767
206,767
173,766
166,765
195,765
229,765
214,765
173,766
156,764
185,764
215,764
208,764
173,764
161,762
189,763
222,765
217,763
183,762
172,762
215,761
253,762
249,762
226,761
215,763
248,761
283,761
282,761
253,760
243,759
283,759
321,759
315,761
296,759
283,759
317,759
352,759
351,759
320,759
312,758
348,758
386,757
377,757
362,755
355,754
376,754
406,754
405,756
371,754
362,752
392,752
429,752
427,751
408,750
400,750
414,752
434,751
430,749
395,748
381,748
407,748
425,748
420,748
399,750
395,749
407,749
426,749
421,748
388,744
369,742
387,741
394,743
385,742
368,741
360,740
365,740
376,741
368,741
343,740
325,742
340,739
352,739
344,739
331,738
328,737
328,737
342,738
335,737
314,736
306,735
317,735
324,735
316,735
302,734
301,735
302,733
320,732
321,732
304,731
299,730
309,730
318,730
318,732
305,729
309,728
316,727
327,728
329,727
311,726
306,725
322,727
326,725
326,725
319,723
315,723
323,723
333,723
339,723
329,723
328,721
345,721
358,721
355,721
352,720
346,719
357,720
367,719
372,719
360,717
356,716
369,716
380,716
372,716
371,717
367,717
375,713
386,713
390,713
377,712
376,711
384,711
400,713
398,711
391,709
389,708
392,708
398,708
400,708
379,707
374,707
382,706
388,706
381,705
369,704
364,704
368,703
375,704
381,703
365,702
358,701
372,701
377,701
375,700
364,701
357,700
365,699
375,699
379,697
366,697
356,694
375,693
384,692
380,691
375,690
371,689
376,689
389,689
386,690
371,689
356,688
373,688
382,689
373,689
358,688
351,688
351,688
369,688
367,687
354,687
345,687
364,686
379,686
372,685
352,684
349,683
351,683
374,683
378,683
357,681
349,681
371,680
387,680
384,680
367,679
363,678
372,677
390,677
395,677
369,676
359,674
384,674
406,674
400,673
383,672
371,671
380,671
396,671
400,670
375,670
361,669
385,668
407,669
395,669
377,668
360,666
373,666
397,667
399,667
371,666
353,665
375,664
402,664
389,664
369,662
356,663
364,662
388,662
390,663
359,663
343,662
365,661
394,660
389,659
362,660
349,659
355,658
383,659
385,657
352,655
341,654
368,656
398,656
398,656
370,656
364,655
377,655
406,655
411,656
378,657
355,654
380,654
403,654
398,654
362,653
348,652
362,652
393,655
398,656
368,652
345,650
380,649
407,650
406,649
373,648
351,648
361,648
389,648
385,647
355,647
330,646
364,646
402,645
402,646
378,645
358,644
374,644
405,644
402,644
370,643
345,643
363,642
387,642
371,642
329,641
299,640
296,639
310,640
301,642
258,643
226,639
235,637
263,637
254,637
219,636
193,635
196,636
211,635
211,635
174,634
158,633
187,633
227,633
237,633
225,633
218,631
246,631
280,631
297,631
278,630
264,630
294,629
333,630
336,630
320,629
306,627
329,627
360,627
369,627
346,627
329,627
356,626
393,626
393,625
378,624
366,625
378,623
406,626
409,625
382,624
366,623
387,622
424,622
425,623
401,622
388,623
396,621
423,621
429,620
404,620
386,619
410,619
440,619
442,622
416,620
403,618
412,617
437,617
440,617
412,616
388,616
411,618
433,619
435,618
413,617
397,615
405,613
426,612
428,612
407,612
381,611
405,610
437,611
438,611
417,610
401,610
407,611
430,610
427,610
402,609
380,608
395,608
419,608
412,608
388,609
375,607
381,607
408,607
415,607
391,606
375,605
395,606
426,608
428,606
407,605
396,604
404,604
423,604
428,604
397,604
379,604
396,603
424,603
423,603
401,602
385,601
393,601
411,601
420,604
393,601
375,600
397,599
427,600
429,600
416,599
407,599
432,601
467,600
486,598
482,597
485,596
520,596
567,596
583,598
587,596
587,595
602,594
628,594
635,595
609,594
587,594
593,595
615,594
606,593
577,593
554,592
550,592
561,591
561,592
529,592
505,590
513,590
529,591
523,591
492,590
470,590
469,589
480,590
476,590
446,589
420,588
429,588
444,589
441,589
418,588
404,588
407,587
422,587
424,587
400,587
376,586
392,586
415,587
415,589
395,586
381,585
382,584
400,584
400,585
379,584
363,585
375,584
397,584
398,584
375,583
365,583
367,582
387,583
394,585
373,583
356,581
371,581
392,581
396,581
374,581
367,580
374,581
390,580
397,580
378,580
362,579
381,578
401,578
409,579
396,579
384,577
391,577
407,578
411,578
392,577
375,577
388,578
410,579
407,579
390,577
374,577
380,577
396,577
402,577
383,578
367,576
380,576
402,576
400,576
387,576
378,575
383,575
400,578
405,577
381,576
366,574
376,573
399,573
400,573
383,572
373,572
378,571
391,571
401,571
381,571
371,570
390,570
414,570
420,571
407,570
394,569
402,569
411,570
420,570
400,570
380,569
389,569
406,568
402,568
388,568
371,567
379,566
392,566
398,568
382,567
365,565
374,564
397,565
399,565
386,564
374,564
378,566
390,564
397,564
379,563
367,563
380,563
400,563
405,563
394,566
385,565
390,564
401,565
410,564
392,561
375,559
386,558
402,562
403,560
387,559
375,558
381,557
394,558
400,559
386,559
370,559
381,558
399,559
398,559
389,558
377,558
379,557
392,559
393,559
380,558
363,557
376,557
394,557
396,558
382,557
374,558
374,557
391,557
396,557
385,556
373,555
384,555
401,556
407,557
391,556
385,555
390,554
402,554
406,555
391,555
375,554
386,556
398,555
403,555
391,554
380,553
383,553
395,554
399,554
387,554
369,553
382,553
400,553
401,553
389,553
376,552
380,553
394,556
394,554
383,553
371,551
382,551
399,551
398,552
389,553
382,551
385,550
402,551
410,551
396,551
385,550
392,550
412,553
415,552
402,551
392,550
394,549
403,550
407,550
389,549
377,550
384,549
400,549
403,549
389,549
379,548
383,548
391,548
400,549
388,548
373,547
383,547
399,548
400,550
390,549
376,548
383,547
396,547
402,546
392,546
380,544
389,542
410,542
412,542
409,542
401,541
405,541
416,541
418,543
406,542
392,543
392,543
409,543
408,544
394,544
383,544
380,543
389,544
394,545
380,545
368,544
374,543
388,543
390,543
376,542
367,542
371,541
383,541
389,542
380,541
367,540
377,540
391,540
398,540
390,541
383,540
387,539
397,540
400,540
392,540
375,539
383,539
400,539
401,540
391,539
382,538
380,538
393,539
393,539
385,538
374,538
381,537
396,538
398,538
384,538
378,538
377,538
391,538
396,539
386,538
374,538
382,537
393,538
400,539
384,538
381,537
383,538
393,539
398,539
387,538
371,537
381,537
392,538
398,538
389,538
379,537
381,536
393,537
396,538
386,538
374,536
381,536
398,537
399,538
387,537
378,536
377,536
390,536
396,537
386,538
373,537
377,536
395,536
400,537
386,537
379,536
379,535
390,536
397,536
383,536
372,536
379,536
395,536
400,535
389,535
380,536
383,535
392,536
402,538
389,537
377,536
383,535
401,535
404,537
392,536
377,536
382,536
391,536
401,536
390,535
377,535
385,535
406,536
409,536
404,537
395,536
398,536
409,537
416,537
402,537
387,536
388,535
407,536
413,536
398,535
386,534
385,535
395,535
403,535
391,534
380,534
390,534
408,533
415,534
404,533
395,533
398,533
406,534
416,534
406,533
388,532
394,532
408,534
413,534
403,534
388,533
392,532
403,533
408,533
398,534
379,534
386,534
403,535
409,536
399,536
387,535
388,534
397,535
399,535
391,535
373,534
378,533
393,532
397,532
383,533
373,535
370,534
382,535
392,535
383,535
371,535
378,535
393,536
404,538
392,537
388,536
391,536
402,537
410,537
399,537
382,537
390,540
400,541
408,541
398,540
386,539
386,536
392,535
400,536
393,536
374,535
383,535
399,535
405,536
395,535
382,535
383,536
395,536
400,537
390,536
375,535
378,535
392,536
393,536
384,538
375,537
377,536
389,536
396,537
387,537
374,536
376,536
395,538
402,538
392,537
382,536
383,536
389,536
399,537
385,537
375,539
380,537
395,537
401,537
392,537
379,536
382,536
387,536
398,538
389,537
374,536
380,536
396,537
397,537
391,537
375,538
383,540
392,538
399,538
392,537
381,536
384,536
405,537
409,539
406,538
398,537
399,537
410,537
416,538
403,538
388,537
389,538
403,538
406,539
393,538
380,538
379,537
384,538
394,538
388,540
372,538
377,538
393,538
401,539
393,539
381,539
386,538
395,540
401,540
394,539
379,539
386,539
402,539
407,540
403,540
396,542
395,539
406,539
410,540
404,540
389,539
390,539
405,541
409,541
399,541
389,540
384,540
395,540
399,541
392,541
376,542
377,541
390,541
395,542
382,542
374,542
374,542
384,543
391,546
384,547
366,545
370,543
383,543
393,543
385,544
373,543
373,544
381,544
388,544
386,544
372,544
382,544
402,544
412,545
409,546
402,545
404,545
415,545
418,546
414,546
399,547
397,547
409,548
408,548
398,548
387,547
382,547
393,548
399,549
390,551
378,551
376,548
392,548
399,549
392,549
383,548
383,549
391,550
397,550
386,550
375,550
379,549
394,550
399,551
392,551
383,551
383,551
388,551
398,552
393,552
380,552
382,552
398,553
402,556
394,555
380,554
382,554
392,555
398,555
390,556
377,556
376,555
392,555
394,556
388,556
381,555
380,555
389,555
397,558
388,557
377,556
375,555
395,556
401,557
393,557
383,557
379,559
388,558
397,558
388,559
379,558
383,558
398,559
406,560
399,563
391,563
393,563
401,563
409,563
400,563
382,559
383,558
394,560
397,560
388,559
377,559
376,559
384,560
391,561
386,561
371,562
375,561
394,562
400,563
394,563
384,562
381,563
391,565
395,565
390,565
379,564
382,564
398,565
406,565
396,566
391,567
386,566
400,566
409,567
404,567
392,566
393,566
404,566
416,569
404,568
399,567
397,567
404,567
411,567
403,568
385,567
390,568
396,569
406,569
398,569
388,569
386,569
394,569
397,570
395,573
378,571
379,570
392,570
397,571
389,571
378,570
372,572
383,572
390,572
386,572
375,571
376,571
392,572
401,572
394,574
391,572
390,572
399,572
409,573
400,573
390,572
392,572
403,575
412,574
406,573
398,572
398,572
402,572
411,573
406,573
395,573
397,572
409,572
416,573
411,573
401,572
403,572
410,573
418,573
411,573
399,572
398,572
410,574
411,574
407,574
397,573
395,572
398,572
401,571
391,570
377,568
370,566
380,566
383,567
373,567
363,566
360,566
365,566
374,567
367,567
362,566
366,566
380,566
389,568
384,568
377,567
380,567
385,567
396,567
394,567
385,567
387,566
397,566
405,566
403,566
394,565
398,565
404,565
408,566
403,565
391,565
392,564
402,565
407,563
401,564
395,564
393,564
399,563
401,565
398,563
387,562
387,563
395,563
399,565
389,565
382,563
374,563
382,564
386,564
377,564
362,564
360,564
362,564
364,564
349,564
340,563
339,563
344,564
351,565
351,565
339,564
346,564
357,564
372,564
368,564
363,563
366,563
376,564
381,564
381,563
368,563
373,562
387,563
395,563
390,563
382,562
378,562
388,563
394,564
391,563
379,562
377,562
390,562
395,563
384,564
374,563
371,563
377,562
387,563
382,563
369,562
368,562
384,562
394,562
388,562
377,562
377,561
384,561
395,562
388,563
373,563
375,562
390,563
398,564
389,562
372,563
372,562
378,562
389,563
388,562
371,561
372,561
392,561
397,562
395,563
373,561
375,560
384,561
394,561
386,561
367,561
364,560
388,560
394,561
397,560
386,560
388,559
404,558
421,559
415,560
401,559
396,559
422,559
435,559
427,559
413,558
412,558
421,558
438,560
437,560
420,559
423,559
444,558
457,558
451,559
432,557
430,556
438,557
447,556
442,554
426,554
429,554
450,556
461,557
463,557
455,556
455,556
464,557
468,558
460,559
439,560
427,559
437,560
439,560
426,560
410,560
399,559
405,561
410,562
400,561
383,560
378,560
389,559
395,560
383,560
374,561
368,559
377,559
383,560
377,560
360,559
357,558
365,558
376,560
365,559
355,558
351,558
358,557
364,558
363,558
348,557
353,560
369,560
379,560
377,560
370,559
369,555
382,554
390,555
394,555
388,554
390,554
406,554
419,554
419,554
417,554
414,555
426,554
432,554
427,554
415,554
410,553
418,553
425,553
418,555
414,553
411,553
415,552
420,553
414,552
406,552
405,551
414,554
421,554
417,553
410,552
409,551
410,551
414,552
410,551
403,551
397,551
402,551
404,551
400,551
389,550
389,549
394,550
397,551
392,551
385,550
380,549
387,549
386,549
386,549
383,550
381,551
384,549
387,549
381,549
376,547
369,547
377,547
381,549
378,548
372,547
371,546
373,546
378,547
371,547
370,546
369,547
372,546
376,546
373,546
366,546
366,545
367,545
374,546
373,546
366,545
366,544
369,544
373,545
373,544
368,544
368,544
374,547
377,546
375,545
368,544
369,543
376,544
381,544
380,544
379,544
376,543
380,543
381,543
382,543
380,542
379,542
385,543
389,543
385,543
383,542
376,541
383,541
389,542
388,542
383,543
382,541
384,541
391,541
384,541
382,541
384,540
386,540
390,543
387,541
378,540
379,540
379,540
388,540
383,540
378,540
378,542
381,543
381,541
383,540
374,538
380,538
386,538
391,538
391,539
387,538
384,537
392,537
394,538
396,538
391,539
390,539
396,542
399,540
393,539
391,538
389,538
392,538
395,538
393,539
386,538
384,537
386,537
393,537
389,537
384,537
382,536
383,537
387,537
387,537
379,535
381,536
385,536
389,536
387,536
381,536
379,535
383,535
384,535
385,536
378,534
375,535
380,534
381,537
378,537
372,536
371,535
374,535
377,536
375,535
370,535
365,535
374,535
379,534
377,534
372,533
370,532
374,532
381,535
378,534
376,532
378,532
387,532
395,532
394,533
388,532
391,534
393,535
402,533
402,533
397,532
397,531
403,531
407,531
409,535
399,535
401,534
404,534
409,534
405,531
397,530
395,529
404,530
403,530
404,530
397,529
394,529
397,529
398,529
396,530
390,530
381,530
391,530
394,530
389,530
380,530
373,529
377,531
382,530
379,530
369,530
365,529
370,529
374,530
365,530
357,530
353,529
357,529
365,529
363,530
349,529
346,529
351,529
360,530
356,530
342,529
338,528
344,528
352,529
358,529
341,529
344,532
361,530
373,530
370,530
360,528
353,528
364,528
373,529
382,529
370,529
370,528
391,528
407,529
403,529
397,528
389,529
403,528
416,529
416,529
403,528
399,527
415,528
434,528
431,530
428,528
428,527
439,527
455,527
458,528
444,527
443,526
461,529
474,528
470,528
458,527
451,526
456,526
462,526
459,527
441,527
429,526
439,525
446,526
439,526
422,525
410,525
415,524
420,525
411,526
389,525
376,527
385,526
390,526
380,526
366,526
358,524
363,524
374,525
371,524
358,522
350,520
368,519
383,519
379,519
366,519
360,519
364,519
378,520
372,520
359,520
351,519
367,520
382,522
378,522
362,521
362,521
369,520
391,520
396,521
383,521
381,520
402,521
418,520
418,520
406,520
402,519
411,519
422,519
420,520
402,520
392,520
410,519
422,520
418,520
405,520
397,519
404,519
416,518
415,519
402,519
396,518
415,519
432,520
428,519
420,519
416,518
422,518
434,518
432,518
413,518
402,518
410,519
422,520
415,519
400,519
393,518
396,519
404,520
403,520
381,519
376,518
388,518
402,519
397,520
384,519
379,519
386,520
393,520
397,520
383,519
380,518
395,519
409,519
408,519
401,519
394,518
405,518
415,518
414,518
402,518
397,518
408,518
421,518
419,518
414,517
412,517
417,517
425,517
422,518
409,517
404,516
409,516
421,517
418,517
409,517
405,515
407,516
412,517
410,517
396,517
393,517
398,518
402,518
398,519
387,518
383,517
386,517
391,518
388,518
376,517
368,518
372,515
375,515
374,516
366,516
363,516
366,517
372,518
371,519
365,520
359,522
371,523
378,521
378,521
373,520
371,520
374,520
383,523
380,525
377,524
375,523
380,520
389,520
389,520
381,520
381,521
382,520
392,520
392,521
387,521
384,520
389,520
396,521
399,523
391,522
393,520
396,521
399,521
396,522
382,521
374,521
376,521
375,521
371,521
361,521
357,521
363,520
372,521
387,522
408,522
429,521
455,521
487,521
512,521
532,520
542,520
552,521
546,521
534,521
517,521
499,520
485,520
476,521
464,521
463,521
464,520
465,520
467,520
464,520
453,520
441,520
419,520
404,522
381,521
355,520
333,519
315,519
299,520
287,520
271,520
266,522
258,522
254,523
250,523
243,522
242,519
245,517
248,517
256,518
257,518
260,517
268,517
273,518
277,518
280,518
282,518
292,518
302,517
309,518
315,518
320,517
333,516
347,518
358,520
365,520
371,518
381,518
394,517
400,518
408,518
414,518
427,520
436,518
444,518
444,518
448,517
448,517
455,517
458,517
457,518
454,517
455,516
454,517
456,517
448,517
448,516
450,516
450,517
447,517
442,517
435,516
436,516
431,516
433,517
428,517
426,520
422,517
420,517
413,517
409,516
398,515
397,515
393,518
388,517
379,516
376,516
369,515
369,516
365,516
361,516
357,516
354,515
354,516
352,516
345,516
345,515
347,515
350,515
354,520
354,517
357,516
364,515
370,515
379,516
382,516
387,515
396,516
398,516
404,516
403,516
403,515
407,515
407,515
405,516
404,516
396,515
397,515
393,515
394,515
392,515
391,514
392,516
395,516
394,516
398,515
396,515
404,514
407,515
409,515
409,516
409,515
407,514
411,515
406,515
409,514
408,514
408,513
408,516
408,515
404,514
406,514
407,514
407,514
405,514
403,514
401,515
400,514
396,514
397,514
394,514
390,513
387,513
384,514
384,518
381,515
376,513
382,513
383,514
384,514
386,514
385,516
390,515
393,515
392,515
397,514
396,513
398,513
400,514
398,516
400,514
400,513
402,513
403,514
404,513
405,513
407,513
408,514
411,514
412,514
413,513
413,513
411,513
409,513
407,513
399,514
397,513
392,512
387,513
379,513
370,513
358,512
351,512
339,515
332,515
323,514
315,514
308,514
303,514
295,514
290,514
279,514
278,513
273,513
267,513
259,512
252,511
249,511
251,514
244,516
237,513
229,511
226,511
224,511
215,511
207,511
206,514
211,512
232,512
247,511
258,511
272,511
293,511
319,512
337,515
343,516
350,514
365,514
383,514
394,511
390,510
393,509
410,510
424,510
425,511
415,510
405,510
411,510
416,511
413,511
381,512
339,511
327,510
319,511
281,512
230,511
182,511
170,512
181,512
173,511
145,511
121,510
129,510
153,511
136,511
99,513
70,511
72,510
103,511
117,511
107,511
106,511
146,510
218,514
255,513
254,511
258,510
296,510
360,510
398,511
402,511
419,512
469,510
534,510
569,511
557,511
548,510
570,511
618,511
644,511
635,511
637,510
684,510
715,511
739,511
764,511
792,511
795,510
794,510
794,511
795,510
789,510
795,510
795,510
795,512
795,510
777,510
752,509
758,510
738,510
689,510
629,509
596,511
576,510
523,511
434,510
358,510
311,510
302,511
268,511
205,511
148,510
128,510
136,510
120,511
67,510
35,510
39,509
76,513
99,511
92,513
94,512
133,511
194,511
232,511
225,510
212,508
236,507
280,507
302,506
294,505
290,505
333,505
397,506
436,506
438,506
435,505
472,506
532,507
561,508
553,509
550,509
581,508
636,509
656,509
644,510
623,509
635,508
664,508
667,508
626,508
591,507
589,507
618,507
617,506
576,506
538,505
536,506
553,506
555,507
513,506
485,505
499,506
535,506
543,506
515,506
485,506
494,506
517,506
524,506
492,506
461,505
473,506
505,506
512,507
486,507
455,506
463,506
486,506
487,505
451,506
415,506
423,507
457,508
456,508
432,507
406,506
410,506
434,507
437,508
405,508
377,507
386,506
426,507
432,507
408,507
389,507
391,507
415,508
424,509
396,508
368,507
382,508
411,508
418,508
394,508
378,507
384,506
406,507
412,507
385,507
355,506
365,506
388,507
392,507
373,507
357,505
360,505
377,506
376,507
347,506
311,506
316,505
333,506
327,506
300,506
279,504
277,505
295,507
297,506
277,507
255,506
265,505
290,507
292,509
268,508
255,508
254,507
280,507
291,507
272,507
253,506
268,506
294,507
304,506
283,505
275,505
284,505
308,506
321,508
300,509
276,509
290,509
313,510
319,511
295,511
273,510
277,511
297,513
306,516
277,517
243,513
248,512
273,512
268,513
230,513
196,514
197,512
224,512
242,513
229,513
214,512
241,512
291,512
308,514
297,513
287,512
302,512
343,513
368,513
354,513
347,513
377,516
433,515
464,513
458,513
449,513
469,512
504,513
530,514
509,514
491,513
514,512
558,512
573,514
554,513
527,513
533,514
555,514
574,514
556,513
536,513
557,512
601,513
616,514
610,514
591,513
602,512
622,513
623,513
584,513
536,513
524,513
538,514
518,513
482,513
447,512
437,512
447,512
447,514
412,513
377,516
376,516
396,516
391,516
356,515
323,512
311,511
322,511
325,512
290,512
251,511
252,510
275,511
274,512
241,512
218,512
224,513
252,512
270,512
264,512
251,511
282,511
328,510
357,514
357,512
351,511
369,511
405,512
426,512
419,512
401,512
430,513
474,513
496,512
490,512
482,512
488,511
517,512
528,513
517,514
493,512
504,511
534,512
543,512
523,512
508,512
502,511
520,512
521,513
495,512
466,512
467,511
481,512
484,512
460,513
449,514
446,512
455,512
460,512
442,512
417,511
424,511
441,513
447,513
435,512
423,511
424,511
432,511
430,512
409,511
383,513
376,513
379,512
369,512
349,511
329,511
321,510
325,511
318,512
286,511
250,510
233,510
231,510
211,511
176,510
151,510
143,510
154,511
171,511
165,511
166,510
190,510
232,510
259,511
265,511
269,510
289,510
316,510
344,511
337,511
342,510
363,511
397,511
414,511
412,511
405,510
416,510
430,510
446,511
431,512
408,510
413,510
431,510
428,511
411,511
390,510
390,510
402,512
409,512
392,511
370,510
375,510
399,510
403,511
386,511
371,513
369,511
383,511
393,511
374,511
353,510
358,510
381,510
386,511
364,512
347,510
347,511
361,511
373,512
353,512
326,512
332,512
351,512
355,512
331,511
305,510
306,510
322,511
332,513
309,512
273,511
278,510
300,510
302,511
270,511
239,510
235,511
257,511
267,511
250,510
223,510
232,509
268,510
278,510
254,511
226,510
224,509
261,510
280,510
266,510
245,510
260,509
304,512
324,512
298,512
273,511
276,511
310,511
327,512
304,513
277,514
282,512
316,512
335,512
305,511
268,510
265,510
292,512
306,512
282,511
253,509
263,509
298,509
316,510
